# log10(T) rate(cm^3/s)
# Total Recomb Rates
1.000000000000000000e+00 1.712790155137642135e-10
1.022922636103151817e+00 1.660257343876609861e-10
1.045845272206303633e+00 1.609309346689977426e-10
1.068767908309455672e+00 1.559899497720757130e-10
1.091690544412607489e+00 1.511982450576464174e-10
1.114613180515759305e+00 1.465514143504709739e-10
1.137535816618911122e+00 1.420451765387314857e-10
1.160458452722062939e+00 1.376753722536847654e-10
1.183381088825214977e+00 1.334379606279779356e-10
1.206303724928366794e+00 1.293290161310738071e-10
1.229226361031518611e+00 1.253447254802631162e-10
1.252148997134670427e+00 1.214813846257641506e-10
1.275071633237822244e+00 1.177353958084372004e-10
1.297994269340974283e+00 1.141032646886651179e-10
1.320916905444126099e+00 1.105815975449731142e-10
1.343839541547277916e+00 1.071670985409848788e-10
1.366762177650429733e+00 1.038565670593337618e-10
1.389684813753581771e+00 1.006468951011668194e-10
1.412607449856733588e+00 9.753506474990337105e-11
1.435530085959885405e+00 9.451814569792642566e-11
1.458452722063037221e+00 9.159329283490714279e-11
1.481375358166189038e+00 8.875774389648104972e-11
1.504297994269340855e+00 8.600881717201355672e-11
1.527220630372492671e+00 8.334390927021026441e-11
1.550143266475644710e+00 8.076049294134791315e-11
1.573065902578796527e+00 7.825611495491733457e-11
1.595988538681948565e+00 7.582839403148952683e-11
1.618911174785100382e+00 7.347501882763322992e-11
1.641833810888252199e+00 7.119374597272963170e-11
1.664756446991404015e+00 6.898239815654787804e-11
1.687679083094555832e+00 6.683886226646187596e-11
1.710601719197707649e+00 6.476108757320680459e-11
1.733524355300859465e+00 6.274708396409008622e-11
1.756446991404011282e+00 6.079492022258966369e-11
1.779369627507163321e+00 5.890272235328852216e-11
1.802292263610315137e+00 5.706867195111221595e-11
1.825214899713467176e+00 5.529100461385214305e-11
1.848137535816618993e+00 5.356800839697526177e-11
1.871060171919770809e+00 5.189802230973729425e-11
1.893982808022922626e+00 5.027943485163487233e-11
1.916905444126074443e+00 4.871068258825742045e-11
1.939828080229226259e+00 4.719024876564450941e-11
1.962750716332378076e+00 4.571666196237864671e-11
1.985673352435529893e+00 4.428849477900019775e-11
2.008595988538681709e+00 4.290436256534918426e-11
2.031518624641833526e+00 4.156292218912570598e-11
2.054441260744985343e+00 4.026287085550788526e-11
2.077363896848137603e+00 3.900294500230546371e-11
2.100286532951289420e+00 3.778191932518760182e-11
2.123209169054441237e+00 3.659860604417935281e-11
2.146131805157593053e+00 3.545185462050262354e-11
2.169054441260744870e+00 3.434055228732316634e-11
2.191977077363897131e+00 3.326362597919309505e-11
2.214899713467048947e+00 3.222004652849782352e-11
2.237822349570200764e+00 3.120883631305712838e-11
2.260744985673352581e+00 3.022908182299181642e-11
2.283667621776504397e+00 2.927995276743977341e-11
2.306590257879656214e+00 2.836072923892439615e-11
2.329512893982808031e+00 2.747083797291801199e-11
2.352435530085959847e+00 2.660989779880078348e-11
2.375358166189111664e+00 2.577777297088674588e-11
2.398280802292263481e+00 2.497463129802060216e-11
2.421203438395415297e+00 2.420100207772187856e-11
2.444126074498567114e+00 2.345782710113936532e-11
2.467048710601718930e+00 2.274649678691903954e-11
2.489971346704870747e+00 2.206886315649219725e-11
2.512893982808022564e+00 2.142722210872426388e-11
2.535816618911174825e+00 2.082425935462307084e-11
2.558739255014326641e+00 2.026295730809000489e-11
2.581661891117478458e+00 1.974646389021642486e-11
2.604584527220630275e+00 1.927792815100647986e-11
2.627507163323782091e+00 1.886031133988610507e-11
2.650429799426934352e+00 1.849618508187732154e-11
2.673352435530086169e+00 1.818753025385970056e-11
2.696275071633237985e+00 1.793555077145428979e-11
2.719197707736389802e+00 1.774051573720659563e-11
2.742120343839541619e+00 1.760164138485308556e-11
2.765042979942693435e+00 1.751702124623470528e-11
2.787965616045845252e+00 1.748360932587483000e-11
2.810888252148997069e+00 1.749725719178804260e-11
2.833810888252148885e+00 1.755280216398431273e-11
2.856733524355300702e+00 1.764420053076375309e-11
2.879656160458452518e+00 1.776469718645936601e-11
2.902578796561604335e+00 1.790702140123641425e-11
2.925501432664756152e+00 1.806359764259230454e-11
2.948424068767907968e+00 1.822676042067735568e-11
2.971346704871059785e+00 1.838896290943210111e-11
2.994269340974212046e+00 1.854297044277043050e-11
3.017191977077363862e+00 1.868203171894584197e-11
3.040114613180515679e+00 1.880002248616624671e-11
3.063037249283667496e+00 1.889155846417977103e-11
3.085959885386819312e+00 1.895207614328279376e-11
3.108882521489971129e+00 1.897788179115202435e-11
3.131805157593122946e+00 1.896617042157042719e-11
3.154727793696275207e+00 1.891501760295898393e-11
3.177650429799427023e+00 1.882334780163390436e-11
3.200573065902578840e+00 1.869088347796389396e-11
3.223495702005730656e+00 1.851807940804719816e-11
3.246418338108882473e+00 1.830604671836902704e-11
3.269340974212034290e+00 1.805647092413352935e-11
3.292263610315186106e+00 1.777152787820368131e-11
3.315186246418337923e+00 1.745380098965123906e-11
3.338108882521489740e+00 1.710620238456879515e-11
3.361031518624641556e+00 1.673189989178599127e-11
3.383954154727793817e+00 1.633425089114152401e-11
3.406876790830945634e+00 1.591674322584887930e-11
3.429799426934097450e+00 1.548294262829230744e-11
3.452722063037249267e+00 1.503644551724763064e-11
3.475644699140401084e+00 1.458083566011387173e-11
3.498567335243552900e+00 1.411964309821217146e-11
3.521489971346704717e+00 1.365630391415676332e-11
3.544412607449856534e+00 1.319411984665664284e-11
3.567335243553008350e+00 1.273621736312195876e-11
3.590257879656160167e+00 1.228550649160350551e-11
3.613180515759312428e+00 1.184464038730559491e-11
3.636103151862464244e+00 1.141597716698698789e-11
3.659025787965616061e+00 1.100154590907152637e-11
3.681948424068767878e+00 1.060301884122229572e-11
3.704871060171919694e+00 1.022169160935035791e-11
3.727793696275071511e+00 9.858473166423780415e-12
3.750716332378223328e+00 9.513886289498721444e-12
3.773638968481375144e+00 9.188079104177973405e-12
3.796561604584526961e+00 8.880847355483826742e-12
3.819484240687678778e+00 8.591666607214241514e-12
3.842406876790831038e+00 8.319733172749834825e-12
3.865329512893982855e+00 8.064012467467681531e-12
3.888252148997134672e+00 7.823293698730822207e-12
3.911174785100286488e+00 7.596250412532208249e-12
3.934097421203438305e+00 7.381507375177333121e-12
3.957020057306590122e+00 7.177715472416023524e-12
3.979942693409741938e+00 6.983637531040783795e-12
4.002865329512893311e+00 6.798248866268469462e-12
4.025787965616045128e+00 6.620856508251771756e-12
4.048710601719197832e+00 6.451240038554645492e-12
4.071633237822349649e+00 6.289814465602373992e-12
4.094555873925501466e+00 6.137811526714192220e-12
4.117478510028653282e+00 5.997470510877527419e-12
4.140401146131805099e+00 5.872223819633221470e-12
4.163323782234956916e+00 5.766857011704817927e-12
4.186246418338108732e+00 5.687619160444199576e-12
4.209169054441260549e+00 5.642258077012319527e-12
4.232091690544412366e+00 5.639957092850624322e-12
4.255014326647564182e+00 5.691155919250281523e-12
4.277936962750716887e+00 5.807247261672027703e-12
4.300859598853868704e+00 6.000152417962267600e-12
4.323782234957020520e+00 6.281791633787596215e-12
4.346704871060172337e+00 6.663476902943027865e-12
4.369627507163324154e+00 7.155264609616541063e-12
4.392550143266475970e+00 7.765311640728448262e-12
4.415472779369627787e+00 8.499280566245970638e-12
4.438395415472779604e+00 9.359836995745924933e-12
4.461318051575931420e+00 1.034627564865285774e-11
4.484240687679083237e+00 1.145430188043279387e-11
4.507163323782235054e+00 1.267598356417234060e-11
4.530085959885386870e+00 1.399987564669339016e-11
4.553008595988538687e+00 1.541130764490021377e-11
4.575931232091690504e+00 1.689281389249309201e-11
4.598853868194842320e+00 1.842467826864169166e-11
4.621776504297994137e+00 1.998555988070896496e-11
4.644699140401145954e+00 2.155316384183433312e-11
4.667621776504297770e+00 2.310492170070525289e-11
4.690544412607449587e+00 2.461864884366521667e-11
4.713467048710601404e+00 2.607315075558848539e-11
4.736389684813753220e+00 2.744875579036528321e-11
4.759312320916905037e+00 2.872775846538266818e-11
4.782234957020056854e+00 2.989476371767367653e-11
4.805157593123208670e+00 3.093692859823245996e-11
4.828080229226360487e+00 3.184410320461289569e-11
4.851002865329512304e+00 3.260887704648171712e-11
4.873925501432664120e+00 3.322654039924001260e-11
4.896848137535815937e+00 3.369497251513005105e-11
4.919770773638967754e+00 3.401446989040411612e-11
4.942693409742119570e+00 3.418752824394769397e-11
4.965616045845272275e+00 3.421859159165582246e-11
4.988538681948424092e+00 3.411378096031384264e-11
5.011461318051575908e+00 3.388061403296353763e-11
5.034383954154727725e+00 3.352772550218390705e-11
5.057306590257879542e+00 3.306459625795070712e-11
5.080229226361031358e+00 3.250129786051470840e-11
5.103151862464183175e+00 3.184825713059421582e-11
5.126074498567334992e+00 3.111604419102503458e-11
5.148997134670486808e+00 3.031518595710833770e-11
5.171919770773638625e+00 2.945600592070135711e-11
5.194842406876790442e+00 2.854849011453796919e-11
5.217765042979942258e+00 2.760217837608089090e-11
5.240687679083094075e+00 2.662607944404008257e-11
5.263610315186245892e+00 2.562860799979960645e-11
5.286532951289397708e+00 2.461754149142871955e-11
5.309455587392550413e+00 2.359999442923246713e-11
5.332378223495702230e+00 2.258240779810739949e-11
5.355300859598854046e+00 2.157055127299330056e-11
5.378223495702005863e+00 2.056953603020341775e-11
5.401146131805157680e+00 1.958383610158515559e-11
5.424068767908309496e+00 1.861731640429897843e-11
5.446991404011461313e+00 1.767326578249321699e-11
5.469914040114613130e+00 1.675443360647488932e-11
5.492836676217764946e+00 1.586306868060254500e-11
5.515759312320916763e+00 1.500095940584767053e-11
5.538681948424068580e+00 1.416947432182353666e-11
5.561604584527220396e+00 1.336960231317329677e-11
5.584527220630372213e+00 1.260199190546834239e-11
5.607449856733524030e+00 1.186698919659371916e-11
5.630372492836675846e+00 1.116467407249076483e-11
5.653295128939827663e+00 1.049489444328105147e-11
5.676217765042979480e+00 9.857298309708465208e-12
5.699140401146131296e+00 9.251363532964868690e-12
5.722063037249283113e+00 8.676425235452316912e-12
5.744985673352435818e+00 8.131700807536222672e-12
5.767908309455587634e+00 7.616312536953328670e-12
5.790830945558739451e+00 7.129307913818053790e-12
5.813753581661891268e+00 6.669677695261954077e-12
5.836676217765043084e+00 6.236371839516036116e-12
5.859598853868194901e+00 5.828313439492331751e-12
5.882521489971346718e+00 5.444410800491282558e-12
5.905444126074498534e+00 5.083567815594638844e-12
5.928366762177650351e+00 4.744692795887774227e-12
5.951289398280802168e+00 4.426705911434888528e-12
5.974212034383953984e+00 4.128545393666253799e-12
5.997134670487105801e+00 3.849172641433677753e-12
6.020057306590257618e+00 3.587576362409613016e-12
6.042979942693409434e+00 3.342775869679018600e-12
6.065902578796561251e+00 3.113823641130102145e-12
6.088825214899713067e+00 2.899807237268386158e-12
6.111747851002864884e+00 2.699850661857025028e-12
6.134670487106016701e+00 2.513115239643857243e-12
6.157593123209168517e+00 2.338800076526429881e-12
6.180515759312320334e+00 2.176142159848436692e-12
6.203438395415473039e+00 2.024416150031926193e-12
6.226361031518624856e+00 1.882933909281844307e-12
6.249283667621776672e+00 1.751043808473177098e-12
6.272206303724928489e+00 1.628129849361338175e-12
6.295128939828080306e+00 1.513610635772460366e-12
6.318051575931232122e+00 1.406938224288327654e-12
6.340974212034383939e+00 1.307596882029501020e-12
6.363896848137535756e+00 1.215101776382166052e-12
6.386819484240687572e+00 1.128997618862751396e-12
6.409742120343839389e+00 1.048857282748144735e-12
6.432664756446991206e+00 9.742804116166749077e-13
6.455587392550143022e+00 9.048920335572176188e-13
6.478510028653294839e+00 8.403411935294847905e-13
6.501432664756446655e+00 7.802996142189155388e-13
6.524355300859598472e+00 7.244603937447243506e-13
6.547277936962750289e+00 6.725367467659722236e-13
6.570200573065902105e+00 6.242607938994645911e-13
6.593123209169053922e+00 5.793824029205696372e-13
6.616045845272205739e+00 5.376680839638245673e-13
6.638968481375357555e+00 4.988999398696397993e-13
6.661891117478510260e+00 4.628746719273813704e-13
6.684813753581662077e+00 4.294026405313130387e-13
6.707736389684813894e+00 3.983069796796935531e-13
6.730659025787965710e+00 3.694227637929185721e-13
6.753581661891117527e+00 3.425962249874036368e-13
6.776504297994269344e+00 3.176840187018220940e-13
6.799426934097421160e+00 2.945525354156500499e-13
6.822349570200572977e+00 2.730772561122924166e-13
6.845272206303724793e+00 2.531421491071675798e-13
6.868194842406876610e+00 2.346391058733088323e-13
6.891117478510028427e+00 2.174674135430826305e-13
6.914040114613180243e+00 2.015332618358194224e-13
6.936962750716332060e+00 1.867492822501637242e-13
6.959885386819483877e+00 1.730341174607872918e-13
6.982808022922635693e+00 1.603120189668971717e-13
7.005730659025787510e+00 1.485124711508972832e-13
7.028653295128939327e+00 1.375698400166794145e-13
7.051575931232091143e+00 1.274230449861258447e-13
7.074498567335242960e+00 1.180152522379228548e-13
7.097421203438395665e+00 1.092935881736338182e-13
7.120343839541547482e+00 1.012088716914885094e-13
7.143266475644699298e+00 9.371536403813240538e-14
7.166189111747851115e+00 8.677053509255755861e-14
7.189111747851002931e+00 8.033484501460267553e-14
7.212034383954154748e+00 7.437154026299598003e-14
7.234957020057306565e+00 6.884646305514441041e-14
7.257879656160458381e+00 6.372787340308032639e-14
7.280802292263610198e+00 5.898628291749964221e-14
7.303724928366762015e+00 5.459429962501879277e-14
7.326647564469913831e+00 5.052648309299118464e-14
7.349570200573065648e+00 4.675920920179491547e-14
7.372492836676217465e+00 4.327054394675011368e-14
7.395415472779369281e+00 4.004012569104272903e-14
7.418338108882521098e+00 3.704905532749193530e-14
7.441260744985672915e+00 3.427979384094836161e-14
7.464183381088824731e+00 3.171606679477012756e-14
7.487106017191976548e+00 2.934277529439354658e-14
7.510028653295128365e+00 2.714591300867137405e-14
7.532951289398280181e+00 2.511248885555249349e-14
7.555873925501432886e+00 2.323045498296108972e-14
7.578796561604584703e+00 2.148863969852776201e-14
7.601719197707736519e+00 1.987668502323519121e-14
7.624641833810888336e+00 1.838498856417298352e-14
7.647564469914040153e+00 1.700464942052734014e-14
7.670487106017191969e+00 1.572741785475053839e-14
7.693409742120343786e+00 1.454564847762576798e-14
7.716332378223495603e+00 1.345225671173309546e-14
7.739255014326647419e+00 1.244067831268871835e-14
7.762177650429799236e+00 1.150483174152647199e-14
7.785100286532951053e+00 1.063908319476657717e-14
7.808022922636102869e+00 9.838214111117740394e-15
7.830945558739254686e+00 9.097390985427402393e-15
7.853868194842406503e+00 8.412137331470680432e-15
7.876790830945558319e+00 7.778307645489097312e-15
7.899713467048710136e+00 7.192063232090413331e-15
7.922636103151861953e+00 6.649849763234396583e-15
7.945558739255013769e+00 6.148376449587535968e-15
7.968481375358165586e+00 5.684596711562834345e-15
7.991404011461317403e+00 5.255690244897373110e-15
8.014326647564470107e+00 4.859046382687434339e-15
8.037249283667621924e+00 4.492248662425039499e-15
8.060171919770773741e+00 4.153060512784779564e-15
8.083094555873925557e+00 3.839411980720686206e-15
8.106017191977077374e+00 3.549387424870418893e-15
8.128939828080229191e+00 3.281214106351408242e-15
8.151862464183381007e+00 3.033251612790095946e-15
8.174785100286532824e+00 2.803982055870937823e-15
8.197707736389684641e+00 2.592000986844961195e-15
8.220630372492836457e+00 2.396008978315713577e-15
8.243553008595988274e+00 2.214803824240379919e-15
8.266475644699140091e+00 2.047273313461337088e-15
8.289398280802291907e+00 1.892388535233528700e-15
8.312320916905443724e+00 1.749197678150017371e-15
8.335243553008595541e+00 1.616820286605268300e-15
8.358166189111747357e+00 1.494441941485918841e-15
8.381088825214899174e+00 1.381309334153921709e-15
8.404011461318050991e+00 1.276725704998348051e-15
8.426934097421202807e+00 1.180046619890458709e-15
8.449856733524356400e+00 1.090676059791886783e-15
8.472779369627506441e+00 1.008062800547514378e-15
8.495702005730660034e+00 9.316970615513064777e-16
8.518624641833810074e+00 8.611074035143178236e-16
8.541547277936963667e+00 7.958578569953565775e-16
8.564469914040113707e+00 7.355452646862171204e-16
8.587392550143267300e+00 6.797968216789658982e-16
8.610315186246417340e+00 6.282677990918302458e-16
8.633237822349570934e+00 5.806394374961213750e-16
8.656160458452720974e+00 5.366169975774280577e-16
8.679083094555874567e+00 4.959279563830792841e-16
8.702005730659024607e+00 4.583203383615923611e-16
8.724928366762178200e+00 4.235611711911746521e-16
8.747851002865328240e+00 3.914350571294480306e-16
8.770773638968481833e+00 3.617428512977254600e-16
8.793696275071631874e+00 3.343004389457266445e-16
8.816618911174785467e+00 3.089376043285842964e-16
8.839541547277935507e+00 2.854969843719926702e-16
8.862464183381089100e+00 2.638331008051466167e-16
8.885386819484239140e+00 2.438114649087103972e-16
8.908309455587392733e+00 2.253077494579898118e-16
8.931232091690544550e+00 2.082070228431990681e-16
8.954154727793696367e+00 1.924030407205907875e-16
8.977077363896848183e+00 1.777975908931539523e-16
9.000000000000000000e+00 1.642998874389432487e-16
