# log10(T) rate(cm^3/s)
# Total Recomb Rates
1.000000000000000000e+00 1.531220336421645494e-09
1.022922636103151817e+00 1.488848303276996929e-09
1.045845272206303633e+00 1.447600126571632290e-09
1.068767908309455672e+00 1.407446767477439743e-09
1.091690544412607489e+00 1.368359940006040651e-09
1.114613180515759305e+00 1.330312091144722361e-09
1.137535816618911122e+00 1.293276381508402630e-09
1.160458452722062939e+00 1.257226666494667744e-09
1.183381088825214977e+00 1.222137477929290052e-09
1.206303724928366794e+00 1.187984006189995700e-09
1.229226361031518611e+00 1.154742082796553977e-09
1.252148997134670427e+00 1.122388163455624724e-09
1.275071633237822244e+00 1.090899311549086625e-09
1.297994269340974283e+00 1.060253182054887490e-09
1.320916905444126099e+00 1.030428005889757687e-09
1.343839541547277916e+00 1.001402574663394018e-09
1.366762177650429733e+00 9.731562258340346456e-10
1.389684813753581771e+00 9.456688282555685896e-10
1.412607449856733588e+00 9.189207681066163388e-10
1.435530085959885405e+00 8.928929351922486132e-10
1.458452722063037221e+00 8.675667096092567937e-10
1.481375358166189038e+00 8.429239487661182948e-10
1.504297994269340855e+00 8.189469747490191512e-10
1.527220630372492671e+00 7.956185620255142552e-10
1.550143266475644710e+00 7.729219254776112403e-10
1.573065902578796527e+00 7.508407087562580793e-10
1.595988538681948565e+00 7.293589729494007906e-10
1.618911174785100382e+00 7.084611855559766866e-10
1.641833810888252199e+00 6.881322097583596590e-10
1.664756446991404015e+00 6.683572939859574279e-10
1.687679083094555832e+00 6.491220617628219775e-10
1.710601719197707649e+00 6.304125018322749208e-10
1.733524355300859465e+00 6.122149585517139371e-10
1.756446991404011282e+00 5.945161225509009468e-10
1.779369627507163321e+00 5.773030216471628647e-10
1.802292263610315137e+00 5.605630120110854945e-10
1.825214899713467176e+00 5.442837695763847284e-10
1.848137535816618993e+00 5.284532816877757043e-10
1.871060171919770809e+00 5.130598389807797873e-10
1.893982808022922626e+00 4.980920274875059213e-10
1.916905444126074443e+00 4.835387209625748302e-10
1.939828080229226259e+00 4.693890734234381971e-10
1.962750716332378076e+00 4.556325118994732672e-10
1.985673352435529893e+00 4.422587293843071459e-10
2.008595988538681709e+00 4.292576779859468120e-10
2.031518624641833526e+00 4.166195622693737421e-10
2.054441260744985343e+00 4.043348327863590801e-10
2.077363896848137603e+00 3.923941797873541831e-10
2.100286532951289420e+00 3.807885271103956477e-10
2.123209169054441237e+00 3.695090262420576482e-10
2.146131805157593053e+00 3.585470505455814053e-10
2.169054441260744870e+00 3.478941896513882225e-10
2.191977077363897131e+00 3.375422440052857177e-10
2.214899713467048947e+00 3.274832195697581996e-10
2.237822349570200764e+00 3.177093226738226100e-10
2.260744985673352581e+00 3.082129550070247224e-10
2.283667621776504397e+00 2.989867087532380127e-10
2.306590257879656214e+00 2.900233618600162372e-10
2.329512893982808031e+00 2.813158734393472693e-10
2.352435530085959847e+00 2.728573792957392423e-10
2.375358166189111664e+00 2.646411875776699788e-10
2.398280802292263481e+00 2.566607745485175422e-10
2.421203438395415297e+00 2.489097804731866778e-10
2.444126074498567114e+00 2.413820056167346316e-10
2.467048710601718930e+00 2.340714063513997625e-10
2.489971346704870747e+00 2.269720913685265835e-10
2.512893982808022564e+00 2.200783179919750323e-10
2.535816618911174825e+00 2.133844885897014241e-10
2.558739255014326641e+00 2.068851470802874095e-10
2.581661891117478458e+00 2.005749755312919759e-10
2.604584527220630275e+00 1.944487908463960415e-10
2.627507163323782091e+00 1.885015415384023994e-10
2.650429799426934352e+00 1.827283045852473200e-10
2.673352435530086169e+00 1.771242823662776510e-10
2.696275071633237985e+00 1.716847996761331998e-10
2.719197707736389802e+00 1.664053008136733459e-10
2.742120343839541619e+00 1.612813467434728032e-10
2.765042979942693435e+00 1.563086123275024415e-10
2.787965616045845252e+00 1.514828836247011129e-10
2.810888252148997069e+00 1.468000552562294173e-10
2.833810888252148885e+00 1.422561278342829682e-10
2.856733524355300702e+00 1.378472054524256119e-10
2.879656160458452518e+00 1.335694932354867095e-10
2.902578796561604335e+00 1.294192949471447785e-10
2.925501432664756152e+00 1.253930106533985077e-10
2.948424068767907968e+00 1.214871344402030834e-10
2.971346704871059785e+00 1.176982521836218599e-10
2.994269340974212046e+00 1.140230393709161237e-10
3.017191977077363862e+00 1.104582589710653213e-10
3.040114613180515679e+00 1.070007593532738833e-10
3.063037249283667496e+00 1.036474722520907233e-10
3.085959885386819312e+00 1.003954107778236601e-10
3.108882521489971129e+00 9.724166747099462885e-11
3.131805157593122946e+00 9.418341239963612800e-11
3.154727793696275207e+00 9.121789129828630505e-11
3.177650429799427023e+00 8.834242374758971894e-11
3.200573065902578840e+00 8.555440139346240938e-11
3.223495702005730656e+00 8.285128620482657575e-11
3.246418338108882473e+00 8.023060876896540448e-11
3.269340974212034290e+00 7.768996662359005901e-11
3.292263610315186106e+00 7.522702262475331699e-11
3.315186246418337923e+00 7.283950334978025742e-11
3.338108882521489740e+00 7.052519753442375228e-11
3.361031518624641556e+00 6.828195454348618660e-11
3.383954154727793817e+00 6.610768287417933276e-11
3.406876790830945634e+00 6.400034869152675891e-11
3.429799426934097450e+00 6.195797439513769555e-11
3.452722063037249267e+00 5.997863721671063587e-11
3.475644699140401084e+00 5.806046784764725404e-11
3.498567335243552900e+00 5.620164909618048951e-11
3.521489971346704717e+00 5.440041457344226891e-11
3.544412607449856534e+00 5.265504740791534904e-11
3.567335243553008350e+00 5.096387898773233734e-11
3.590257879656160167e+00 4.932528773030183236e-11
3.613180515759312428e+00 4.773769787875712990e-11
3.636103151862464244e+00 4.619957832473755188e-11
3.659025787965616061e+00 4.470944145702562522e-11
3.681948424068767878e+00 4.326584203557606889e-11
3.704871060171919694e+00 4.186737609048343633e-11
3.727793696275071511e+00 4.051267984544596856e-11
3.750716332378223328e+00 3.920042866529311998e-11
3.773638968481375144e+00 3.792933602715271709e-11
3.796561604584526961e+00 3.669815251484227270e-11
3.819484240687678778e+00 3.550566483607644232e-11
3.842406876790831038e+00 3.435069486208971165e-11
3.865329512893982855e+00 3.323209868927998906e-11
3.888252148997134672e+00 3.214876572248440573e-11
3.911174785100286488e+00 3.109961777950507547e-11
3.934097421203438305e+00 3.008360821650704491e-11
3.957020057306590122e+00 2.909972107391592138e-11
3.979942693409741938e+00 2.814697024244745177e-11
4.002865329512893311e+00 2.722439864890538017e-11
4.025787965616045128e+00 2.633107746138832971e-11
4.048710601719197832e+00 2.546610531355054739e-11
4.071633237822349649e+00 2.462860754756469203e-11
4.094555873925501466e+00 2.381773547543894257e-11
4.117478510028653282e+00 2.303266565834433888e-11
4.140401146131805099e+00 2.227259920361148567e-11
4.163323782234956916e+00 2.153676107905935596e-11
4.186246418338108732e+00 2.082439944432214553e-11
4.209169054441260549e+00 2.013478499884385557e-11
4.232091690544412366e+00 1.946721034621318211e-11
4.255014326647564182e+00 1.882098937451483212e-11
4.277936962750716887e+00 1.819545665237677281e-11
4.300859598853868704e+00 1.758996684039619340e-11
4.323782234957020520e+00 1.700389411763009309e-11
4.346704871060172337e+00 1.643663162284045128e-11
4.369627507163324154e+00 1.588759091018662733e-11
4.392550143266475970e+00 1.535620141906157623e-11
4.415472779369627787e+00 1.484190995777177513e-11
4.438395415472779604e+00 1.434418020076449269e-11
4.461318051575931420e+00 1.386249219910935942e-11
4.484240687679083237e+00 1.339634190394518152e-11
4.507163323782235054e+00 1.294524070260623475e-11
4.530085959885386870e+00 1.250871496714646571e-11
4.553008595988538687e+00 1.208630561498341906e-11
4.575931232091690504e+00 1.167756768138770938e-11
4.598853868194842320e+00 1.128206990354774347e-11
4.621776504297994137e+00 1.089939431594323274e-11
4.644699140401145954e+00 1.052913585676500145e-11
4.667621776504297770e+00 1.017090198512257927e-11
4.690544412607449587e+00 9.824312308785008167e-12
4.713467048710601404e+00 9.488998222204438352e-12
4.736389684813753220e+00 9.164602554575985569e-12
4.759312320916905037e+00 8.850779227691555577e-12
4.782234957020056854e+00 8.547192923349249336e-12
4.805157593123208670e+00 8.253518760084248755e-12
4.828080229226360487e+00 7.969441978991011904e-12
4.851002865329512304e+00 7.694657638410836220e-12
4.873925501432664120e+00 7.428870317262935662e-12
4.896848137535815937e+00 7.171793826801234519e-12
4.919770773638967754e+00 6.923150930583247970e-12
4.942693409742119570e+00 6.682673072441489972e-12
4.965616045845272275e+00 6.450100112251926005e-12
4.988538681948424092e+00 6.225180069298085285e-12
5.011461318051575908e+00 6.007668873033405300e-12
5.034383954154727725e+00 5.797330121048574741e-12
5.057306590257879542e+00 5.593934844054471475e-12
5.080229226361031358e+00 5.397261277695386903e-12
5.103151862464183175e+00 5.207094641011082848e-12
5.126074498567334992e+00 5.023226921370249921e-12
5.148997134670486808e+00 4.845456665701721636e-12
5.171919770773638625e+00 4.673588777853675149e-12
5.194842406876790442e+00 4.507434321914878427e-12
5.217765042979942258e+00 4.346810331335786186e-12
5.240687679083094075e+00 4.191539623691000328e-12
5.263610315186245892e+00 4.041450620928328105e-12
5.286532951289397708e+00 3.896377174953265899e-12
5.309455587392550413e+00 3.756158398401345741e-12
5.332378223495702230e+00 3.620638500454350107e-12
5.355300859598854046e+00 3.489666627559790461e-12
5.378223495702005863e+00 3.363096708916651767e-12
5.401146131805157680e+00 3.240787306593647326e-12
5.424068767908309496e+00 3.122601470149629060e-12
5.446991404011461313e+00 3.008406595629116410e-12
5.469914040114613130e+00 2.898074288809070714e-12
5.492836676217764946e+00 2.791480232576277956e-12
5.515759312320916763e+00 2.688504058317828569e-12
5.538681948424068580e+00 2.589029221210212128e-12
5.561604584527220396e+00 2.492942879295606801e-12
5.584527220630372213e+00 2.400135776236890979e-12
5.607449856733524030e+00 2.310502127645807381e-12
5.630372492836675846e+00 2.223939510881556543e-12
5.653295128939827663e+00 2.140348758219929167e-12
5.676217765042979480e+00 2.059633853295759363e-12
5.699140401146131296e+00 1.981701830724242280e-12
5.722063037249283113e+00 1.906462678809224343e-12
5.744985673352435818e+00 1.833829245249184323e-12
5.767908309455587634e+00 1.763717145754141139e-12
5.790830945558739451e+00 1.696044675489121613e-12
5.813753581661891268e+00 1.630732723262342755e-12
5.836676217765043084e+00 1.567704688378493229e-12
5.859598853868194901e+00 1.506886400079861699e-12
5.882521489971346718e+00 1.448206039500273456e-12
5.905444126074498534e+00 1.391594064058974591e-12
5.928366762177650351e+00 1.336983134223740570e-12
5.951289398280802168e+00 1.284308042574545137e-12
5.974212034383953984e+00 1.233505645101138311e-12
5.997134670487105801e+00 1.184514794669853426e-12
6.020057306590257618e+00 1.137276276596852631e-12
6.042979942693409434e+00 1.091732746266875943e-12
6.065902578796561251e+00 1.047828668738351645e-12
6.088825214899713067e+00 1.005510260277465228e-12
6.111747851002864884e+00 9.647254317654632310e-13
6.134670487106016701e+00 9.254237339251096154e-13
6.157593123209168517e+00 8.875563043137747546e-13
6.180515759312320334e+00 8.510758160321687032e-13
6.203438395415473039e+00 8.159364280992024185e-13
6.226361031518624856e+00 7.820937374448691890e-13
6.249283667621776672e+00 7.495047324743940069e-13
6.272206303724928489e+00 7.181277481582527850e-13
6.295128939828080306e+00 6.879224226038633968e-13
6.318051575931232122e+00 6.588496550660132008e-13
6.340974212034383939e+00 6.308715653542236703e-13
6.363896848137535756e+00 6.039514545963682114e-13
6.386819484240687572e+00 5.780537673189327080e-13
6.409742120343839389e+00 5.531440548053146438e-13
6.432664756446991206e+00 5.291889396945425601e-13
6.455587392550143022e+00 5.061560817837147589e-13
6.478510028653294839e+00 4.840141449983472586e-13
6.501432664756446655e+00 4.627327654956694927e-13
6.524355300859598472e+00 4.422825208667012669e-13
6.547277936962750289e+00 4.226349004037233995e-13
6.570200573065902105e+00 4.037622764004776027e-13
6.593123209169053922e+00 3.856378764531327246e-13
6.616045845272205739e+00 3.682357567307199994e-13
6.638968481375357555e+00 3.515307761843725498e-13
6.661891117478510260e+00 3.354985716653194262e-13
6.684813753581662077e+00 3.201155339221644066e-13
6.707736389684813894e+00 3.053587844485350927e-13
6.730659025787965710e+00 2.912061531527450119e-13
6.753581661891117527e+00 2.776361568216184255e-13
6.776504297994269344e+00 2.646279783511439279e-13
6.799426934097421160e+00 2.521614467171203169e-13
6.822349570200572977e+00 2.402170176594395631e-13
6.845272206303724793e+00 2.287757550541356225e-13
6.868194842406876610e+00 2.178193129477996386e-13
6.891117478510028427e+00 2.073299182294341870e-13
6.914040114613180243e+00 1.972903539152905861e-13
6.936962750716332060e+00 1.876839430227104267e-13
6.959885386819483877e+00 1.784945330094657657e-13
6.982808022922635693e+00 1.697064807555819241e-13
7.005730659025787510e+00 1.613046380651158000e-13
7.028653295128939327e+00 1.532743376658675771e-13
7.051575931232091143e+00 1.456013796855153970e-13
7.074498567335242960e+00 1.382720185831885126e-13
7.097421203438395665e+00 1.312729505160334662e-13
7.120343839541547482e+00 1.245913011208820048e-13
7.143266475644699298e+00 1.182146136916898311e-13
7.166189111747851115e+00 1.121308377340090511e-13
7.189111747851002931e+00 1.063283178783402806e-13
7.212034383954154748e+00 1.007957831348291073e-13
7.234957020057306565e+00 9.552233647239260591e-14
7.257879656160458381e+00 9.049744470599863902e-14
7.280802292263610198e+00 8.571092867646977649e-14
7.303724928366762015e+00 8.115295370784196682e-14
7.326647564469913831e+00 7.681402032797771729e-14
7.349570200573065648e+00 7.268495523880688588e-14
7.372492836676217465e+00 6.875690252325140483e-14
7.395415472779369281e+00 6.502131507657270243e-14
7.418338108882521098e+00 6.146994625056747889e-14
7.441260744985672915e+00 5.809484169972136569e-14
7.464183381088824731e+00 5.488833141911177494e-14
7.487106017191976548e+00 5.184302196452598699e-14
7.510028653295128365e+00 4.895178884592956650e-14
7.532951289398280181e+00 4.620776908607434613e-14
7.555873925501432886e+00 4.360435393668146443e-14
7.578796561604584703e+00 4.113518174526234129e-14
7.601719197707736519e+00 3.879413096625003034e-14
7.624641833810888336e+00 3.657531331070753261e-14
7.647564469914040153e+00 3.447306702944595028e-14
7.670487106017191969e+00 3.248195032493233697e-14
7.693409742120343786e+00 3.059673488788769201e-14
7.716332378223495603e+00 2.881239955496847735e-14
7.739255014326647419e+00 2.712412408439039700e-14
7.762177650429799236e+00 2.552728304678960864e-14
7.785100286532951053e+00 2.401743982902164846e-14
7.808022922636102869e+00 2.259034074897429311e-14
7.830945558739254686e+00 2.124190927981338372e-14
7.853868194842406503e+00 1.996824038239334754e-14
7.876790830945558319e+00 1.876559494484492454e-14
7.899713467048710136e+00 1.763039432860150396e-14
7.922636103151861953e+00 1.655921502034465038e-14
7.945558739255013769e+00 1.554878338953722301e-14
7.968481375358165586e+00 1.459597055137167164e-14
7.991404011461317403e+00 1.369778733509131633e-14
8.014326647564470107e+00 1.285137935774572377e-14
8.037249283667621924e+00 1.205402220351829576e-14
8.060171919770773741e+00 1.130311670881629720e-14
8.083094555873925557e+00 1.059618435334369675e-14
8.106017191977077374e+00 9.930862757383948808e-15
8.128939828080229191e+00 9.304901285508396358e-15
8.151862464183381007e+00 8.716156756895370664e-15
8.174785100286532824e+00 8.162589262398461483e-15
8.197707736389684641e+00 7.642258088440829051e-15
8.220630372492836457e+00 7.153317747738235261e-15
8.243553008595988274e+00 6.694014116767840574e-15
8.266475644699140091e+00 6.262680679804694714e-15
8.289398280802291907e+00 5.857734879245194752e-15
8.312320916905443724e+00 5.477674571827468556e-15
8.335243553008595541e+00 5.121074590245032986e-15
8.358166189111747357e+00 4.786583409533049512e-15
8.381088825214899174e+00 4.472919917487729793e-15
8.404011461318050991e+00 4.178870288260029960e-15
8.426934097421202807e+00 3.903284958146157632e-15
8.449856733524356400e+00 3.645075702480371606e-15
8.472779369627506441e+00 3.403212812421615449e-15
8.495702005730660034e+00 3.176722370314273550e-15
8.518624641833810074e+00 2.964683622198598755e-15
8.541547277936963667e+00 2.766226445943391889e-15
8.564469914040113707e+00 2.580528913380511499e-15
8.587392550143267300e+00 2.406814944729481898e-15
8.610315186246417340e+00 2.244352053520204522e-15
8.633237822349570934e+00 2.092449180144287058e-15
8.656160458452720974e+00 1.950454612099070447e-15
8.679083094555874567e+00 1.817753988925715095e-15
8.702005730659024607e+00 1.693768389790792908e-15
8.724928366762178200e+00 1.577952501613151995e-15
8.747851002865328240e+00 1.469792865600463017e-15
8.770773638968481833e+00 1.368806200027098303e-15
8.793696275071631874e+00 1.274537797061765680e-15
8.816618911174785467e+00 1.186559991434796878e-15
8.839541547277935507e+00 1.104470698725229620e-15
8.862464183381089100e+00 1.027892021042478755e-15
8.885386819484239140e+00 9.564689178800796302e-16
8.908309455587392733e+00 8.898679399256595016e-16
8.931232091690544550e+00 8.277760236250894360e-16
8.954154727793696367e+00 7.698993443161900909e-16
8.977077363896848183e+00 7.159622257707571351e-16
9.000000000000000000e+00 6.657061040105701597e-16
