# log10(T) rate(cm^3/s)
# Total Recomb Rates
1.000000000000000000e+00 1.537362242394486718e-10
1.022922636103151817e+00 1.492230125640989819e-10
1.045845272206303633e+00 1.448356284486610296e-10
1.068767908309455672e+00 1.405707639620839412e-10
1.091690544412607489e+00 1.364251942390823572e-10
1.114613180515759305e+00 1.323957753584102511e-10
1.137535816618911122e+00 1.284794422808529238e-10
1.160458452722062939e+00 1.246732068452558759e-10
1.183381088825214977e+00 1.209741558209414197e-10
1.206303724928366794e+00 1.173794490148935918e-10
1.229226361031518611e+00 1.138863174321224159e-10
1.252148997134670427e+00 1.104920614876502085e-10
1.275071633237822244e+00 1.071940492685916177e-10
1.297994269340974283e+00 1.039897148448308090e-10
1.320916905444126099e+00 1.008765566268294490e-10
1.343839541547277916e+00 9.785213576913016430e-11
1.366762177650429733e+00 9.491407461815075140e-11
1.389684813753581771e+00 9.206005520289662764e-11
1.412607449856733588e+00 8.928781776724916320e-11
1.435530085959885405e+00 8.659515934251970472e-11
1.458452722063037221e+00 8.397993235899067630e-11
1.481375358166189038e+00 8.144004329519804962e-11
1.504297994269340855e+00 7.897345136373849100e-11
1.527220630372492671e+00 7.657816723242107010e-11
1.550143266475644710e+00 7.425225177961155191e-11
1.573065902578796527e+00 7.199381488265211310e-11
1.595988538681948565e+00 6.980101423827043320e-11
1.618911174785100382e+00 6.767205421392510802e-11
1.641833810888252199e+00 6.560518472906576564e-11
1.664756446991404015e+00 6.359870016531927478e-11
1.687679083094555832e+00 6.165093830464472624e-11
1.710601719197707649e+00 5.976027929453124916e-11
1.733524355300859465e+00 5.792514463934570768e-11
1.756446991404011282e+00 5.614399621696662396e-11
1.779369627507163321e+00 5.441533531987262967e-11
1.802292263610315137e+00 5.273770171988398558e-11
1.825214899713467176e+00 5.110967275578511242e-11
1.848137535816618993e+00 4.952986244308635229e-11
1.871060171919770809e+00 4.799692060521102638e-11
1.893982808022922626e+00 4.650953202542327736e-11
1.916905444126074443e+00 4.506641561883897183e-11
1.939828080229226259e+00 4.366632362388924118e-11
1.962750716332378076e+00 4.230804081263293535e-11
1.985673352435529893e+00 4.099038371933905357e-11
2.008595988538681709e+00 3.971219988678589745e-11
2.031518624641833526e+00 3.847236712974707921e-11
2.054441260744985343e+00 3.726979281515838287e-11
2.077363896848137603e+00 3.610341315848132611e-11
2.100286532951289420e+00 3.497219253580167470e-11
2.123209169054441237e+00 3.387512281122090449e-11
2.146131805157593053e+00 3.281122267911984084e-11
2.169054441260744870e+00 3.177953702089193594e-11
2.191977077363897131e+00 3.077913627576220404e-11
2.214899713467048947e+00 2.980911582532556113e-11
2.237822349570200764e+00 2.886859539145442594e-11
2.260744985673352581e+00 2.795671844724204449e-11
2.283667621776504397e+00 2.707265164066217203e-11
2.306590257879656214e+00 2.621558423064078095e-11
2.329512893982808031e+00 2.538472753524837198e-11
2.352435530085959847e+00 2.457931439173444208e-11
2.375358166189111664e+00 2.379859862813773437e-11
2.398280802292263481e+00 2.304185454621693936e-11
2.421203438395415297e+00 2.230837641545744802e-11
2.444126074498567114e+00 2.159747797791926964e-11
2.467048710601718930e+00 2.090849196370105032e-11
2.489971346704870747e+00 2.024076961680336733e-11
2.512893982808022564e+00 1.959368023118290154e-11
2.535816618911174825e+00 1.896661069679650246e-11
2.558739255014326641e+00 1.835896505544133992e-11
2.581661891117478458e+00 1.777016406620352772e-11
2.604584527220630275e+00 1.719964478033427970e-11
2.627507163323782091e+00 1.664686012537767387e-11
2.650429799426934352e+00 1.611127849837960279e-11
2.673352435530086169e+00 1.559238336801233824e-11
2.696275071633237985e+00 1.508967288545334222e-11
2.719197707736389802e+00 1.460265950386137968e-11
2.742120343839541619e+00 1.413086960629650217e-11
2.765042979942693435e+00 1.367384314193407625e-11
2.787965616045845252e+00 1.323113327042628076e-11
2.810888252148997069e+00 1.280230601426742317e-11
2.833810888252148885e+00 1.238693991902215361e-11
2.856733524355300702e+00 1.198462572127827769e-11
2.879656160458452518e+00 1.159496602418812581e-11
2.902578796561604335e+00 1.121757498046462117e-11
2.925501432664756152e+00 1.085207798270037294e-11
2.948424068767907968e+00 1.049811136087971713e-11
2.971346704871059785e+00 1.015532208695571191e-11
2.994269340974212046e+00 9.823367486365480329e-12
3.017191977077363862e+00 9.501914956359102703e-12
3.040114613180515679e+00 9.190641691018463090e-12
3.063037249283667496e+00 8.889234412844182867e-12
3.085959885386819312e+00 8.597389110789829403e-12
3.108882521489971129e+00 8.314810784624079044e-12
3.131805157593122946e+00 8.041213195502701054e-12
3.154727793696275207e+00 7.776318622633392387e-12
3.177650429799427023e+00 7.519857625917848646e-12
3.200573065902578840e+00 7.271568814456400091e-12
3.223495702005730656e+00 7.031198620801939022e-12
3.246418338108882473e+00 6.798501080850807583e-12
3.269340974212034290e+00 6.573237619259618794e-12
3.292263610315186106e+00 6.355176840277987718e-12
3.315186246418337923e+00 6.144094323888395271e-12
3.338108882521489740e+00 5.939772427145525190e-12
3.361031518624641556e+00 5.742000090608535876e-12
3.383954154727793817e+00 5.550572649760942946e-12
3.406876790830945634e+00 5.365291651313969330e-12
3.429799426934097450e+00 5.185964674290329643e-12
3.452722063037249267e+00 5.012405155786746016e-12
3.475644699140401084e+00 4.844432221314627502e-12
3.498567335243552900e+00 4.681870519619591611e-12
3.521489971346704717e+00 4.524550061881753757e-12
3.544412607449856534e+00 4.372306065200053759e-12
3.567335243553008350e+00 4.224978800265020258e-12
3.590257879656160167e+00 4.082413443125823907e-12
3.613180515759312428e+00 3.944459930958660059e-12
3.636103151862464244e+00 3.810972821744919366e-12
3.659025787965616061e+00 3.681811157768851937e-12
3.681948424068767878e+00 3.556838332845852398e-12
3.704871060171919694e+00 3.435921963193805904e-12
3.727793696275071511e+00 3.318933761861314812e-12
3.750716332378223328e+00 3.205749416627999824e-12
3.773638968481375144e+00 3.096248471293456371e-12
3.796561604584526961e+00 2.990314210272830354e-12
3.819484240687678778e+00 2.887833546418367981e-12
3.842406876790831038e+00 2.788696911987704445e-12
3.865329512893982855e+00 2.692798152681025388e-12
3.888252148997134672e+00 2.600034424670683877e-12
3.911174785100286488e+00 2.510306094548198192e-12
3.934097421203438305e+00 2.423516642115004453e-12
3.957020057306590122e+00 2.339572565944703351e-12
3.979942693409741938e+00 2.258383291645938883e-12
4.002865329512893311e+00 2.179861082756459455e-12
4.025787965616045128e+00 2.103920954200228804e-12
4.048710601719197832e+00 2.030480588240944997e-12
4.071633237822349649e+00 1.959460252866556806e-12
4.094555873925501466e+00 1.890782722540810724e-12
4.117478510028653282e+00 1.824373201259223811e-12
4.140401146131805099e+00 1.760159247848152256e-12
4.163323782234956916e+00 1.698070703446998991e-12
4.186246418338108732e+00 1.638039621114908501e-12
4.209169054441260549e+00 1.580000197504600309e-12
4.232091690544412366e+00 1.523888706547287564e-12
4.255014326647564182e+00 1.469643435093889271e-12
4.277936962750716887e+00 1.417204620459020476e-12
4.300859598853868704e+00 1.366514389815499778e-12
4.323782234957020520e+00 1.317516701388297185e-12
4.346704871060172337e+00 1.270157287398137798e-12
4.369627507163324154e+00 1.224383598706102656e-12
4.392550143266475970e+00 1.180144751111790897e-12
4.415472779369627787e+00 1.137391473258763310e-12
4.438395415472779604e+00 1.096076056102125972e-12
4.461318051575931420e+00 1.056152303894257285e-12
4.484240687679083237e+00 1.017575486645782953e-12
4.507163323782235054e+00 9.803022940199988247e-13
4.530085959885386870e+00 9.442907906200235475e-13
4.553008595988538687e+00 9.095003726290090805e-13
4.575931232091690504e+00 8.758917257647911843e-13
4.598853868194842320e+00 8.434267845113631609e-13
4.621776504297994137e+00 8.120686925905739392e-13
4.644699140401145954e+00 7.817817646384261024e-13
4.667621776504297770e+00 7.525314490513131535e-13
4.690544412607449587e+00 7.242842919684798236e-13
4.713467048710601404e+00 6.970079023579218308e-13
4.736389684813753220e+00 6.706709181738352143e-13
4.759312320916905037e+00 6.452429735546249529e-13
4.782234957020056854e+00 6.206946670313455992e-13
4.805157593123208670e+00 5.969975307173005013e-13
4.828080229226360487e+00 5.741240004503480115e-13
4.851002865329512304e+00 5.520473868602888488e-13
4.873925501432664120e+00 5.307418473344880000e-13
4.896848137535815937e+00 5.101823588556713353e-13
4.919770773638967754e+00 4.903446916865792739e-13
4.942693409742119570e+00 4.712053838769113865e-13
4.965616045845272275e+00 4.527417165686973406e-13
4.988538681948424092e+00 4.349316900769459035e-13
5.011461318051575908e+00 4.177540007230833342e-13
5.034383954154727725e+00 4.011880183993799259e-13
5.057306590257879542e+00 3.852137648431816756e-13
5.080229226361031358e+00 3.698118926004045887e-13
5.103151862464183175e+00 3.549636646583495667e-13
5.126074498567334992e+00 3.406509347284847110e-13
5.148997134670486808e+00 3.268561281604081357e-13
5.171919770773638625e+00 3.135622234687630246e-13
5.194842406876790442e+00 3.007527344554004703e-13
5.217765042979942258e+00 2.884116929096069626e-13
5.240687679083094075e+00 2.765236318697092282e-13
5.263610315186245892e+00 2.650735694298453169e-13
5.286532951289397708e+00 2.540469930761568770e-13
5.309455587392550413e+00 2.434298445370986171e-13
5.332378223495702230e+00 2.332085051329912536e-13
5.355300859598854046e+00 2.233697816103458669e-13
5.378223495702005863e+00 2.139008924468964613e-13
5.401146131805157680e+00 2.047894546136372415e-13
5.424068767908309496e+00 1.960234707805334124e-13
5.446991404011461313e+00 1.875913169529147180e-13
5.469914040114613130e+00 1.794817305258910429e-13
5.492836676217764946e+00 1.716837987444455289e-13
5.515759312320916763e+00 1.641869475571580743e-13
5.538681948424068580e+00 1.569809308518022112e-13
5.561604584527220396e+00 1.500558200613271212e-13
5.584527220630372213e+00 1.434019941289992627e-13
5.607449856733524030e+00 1.370101298217250874e-13
5.630372492836675846e+00 1.308711923808118752e-13
5.653295128939827663e+00 1.249764264996498191e-13
5.676217765042979480e+00 1.193173476180127625e-13
5.699140401146131296e+00 1.138857335228820364e-13
5.722063037249283113e+00 1.086736162458932182e-13
5.744985673352435818e+00 1.036732742476960313e-13
5.767908309455587634e+00 9.887722487970097608e-14
5.790830945558739451e+00 9.427821711385803859e-14
5.813753581661891268e+00 8.986922453129076472e-14
5.836676217765043084e+00 8.564343856076893213e-14
5.859598853868194901e+00 8.159426195816991088e-14
5.882521489971346718e+00 7.771530251823715700e-14
5.905444126074498534e+00 7.400036701010418843e-14
5.928366762177650351e+00 7.044345532820830941e-14
5.951289398280802168e+00 6.703875485037652576e-14
5.974212034383953984e+00 6.378063499502347401e-14
5.997134670487105801e+00 6.066364196956005803e-14
6.020057306590257618e+00 5.768249370227203536e-14
6.042979942693409434e+00 5.483207495009188522e-14
6.065902578796561251e+00 5.210743257485327885e-14
6.088825214899713067e+00 4.950377098078738098e-14
6.111747851002864884e+00 4.701644770619468194e-14
6.134670487106016701e+00 4.464096916240450667e-14
6.157593123209168517e+00 4.237298651331643487e-14
6.180515759312320334e+00 4.020829168900739498e-14
6.203438395415473039e+00 3.814281352707900465e-14
6.226361031518624856e+00 3.617261403561912876e-14
6.249283667621776672e+00 3.429388477185199708e-14
6.272206303724928489e+00 3.250294333076106042e-14
6.295128939828080306e+00 3.079622993817763576e-14
6.318051575931232122e+00 2.917030414304544087e-14
6.340974212034383939e+00 2.762184160379042587e-14
6.363896848137535756e+00 2.614763096394719005e-14
6.386819484240687572e+00 2.474457081241898786e-14
6.409742120343839389e+00 2.340966672397515670e-14
6.432664756446991206e+00 2.214002837581887515e-14
6.455587392550143022e+00 2.093286673628685409e-14
6.478510028653294839e+00 1.978549132197224784e-14
6.501432664756446655e+00 1.869530751979015760e-14
6.524355300859598472e+00 1.765981397073184616e-14
6.547277936962750289e+00 1.667660001227809111e-14
6.570200573065902105e+00 1.574334317666278564e-14
6.593123209169053922e+00 1.485780674239506348e-14
6.616045845272205739e+00 1.401783733665989932e-14
6.638968481375357555e+00 1.322136258642362519e-14
6.661891117478510260e+00 1.246638881627053191e-14
6.684813753581662077e+00 1.175099879118994191e-14
6.707736389684813894e+00 1.107334950271749808e-14
6.730659025787965710e+00 1.043166999701237881e-14
6.753581661891117527e+00 9.824259243618931899e-15
6.776504297994269344e+00 9.249484043820685126e-15
6.799426934097421160e+00 8.705776977643388273e-15
6.822349570200572977e+00 8.191634388702615836e-15
6.845272206303724793e+00 7.705614406220360907e-15
6.868194842406876610e+00 7.246335003653152769e-15
6.891117478510028427e+00 6.812472093481913369e-15
6.914040114613180243e+00 6.402757657811095937e-15
6.936962750716332060e+00 6.015977914511129456e-15
6.959885386819483877e+00 5.650971518714488955e-15
6.982808022922635693e+00 5.306627799541855235e-15
7.005730659025787510e+00 4.981885031990805164e-15
7.028653295128939327e+00 4.675728743966075689e-15
7.051575931232091143e+00 4.387190058467549527e-15
7.074498567335242960e+00 4.115344070980515045e-15
7.097421203438395665e+00 3.859308262132666040e-15
7.120343839541547482e+00 3.618240945694383006e-15
7.143266475644699298e+00 3.391339752003336375e-15
7.166189111747851115e+00 3.177840146892562466e-15
7.189111747851002931e+00 2.977013986192358430e-15
7.212034383954154748e+00 2.788168105862467593e-15
7.234957020057306565e+00 2.610642947791627695e-15
7.257879656160458381e+00 2.443811221277887951e-15
7.280802292263610198e+00 2.287076600175366837e-15
7.303724928366762015e+00 2.139872455662113196e-15
7.326647564469913831e+00 2.001660624549892292e-15
7.349570200573065648e+00 1.871930213020666726e-15
7.372492836676217465e+00 1.750196435636733391e-15
7.395415472779369281e+00 1.635999489432457426e-15
7.418338108882521098e+00 1.528903462855789898e-15
7.441260744985672915e+00 1.428495279287659886e-15
7.464183381088824731e+00 1.334383674827360088e-15
7.487106017191976548e+00 1.246198209992529431e-15
7.510028653295128365e+00 1.163588314943672717e-15
7.532951289398280181e+00 1.086222367805594948e-15
7.555873925501432886e+00 1.013786805621992404e-15
7.578796561604584703e+00 9.459852674449817628e-16
7.601719197707736519e+00 8.825377690286505668e-16
7.624641833810888336e+00 8.231799085652426758e-16
7.647564469914040153e+00 7.676621028740670440e-16
7.670487106017191969e+00 7.157488534271924516e-16
7.693409742120343786e+00 6.672180415722318127e-16
7.716332378223495603e+00 6.218602522912555375e-16
7.739255014326647419e+00 5.794781258160680705e-16
7.762177650429799236e+00 5.398857364037758721e-16
7.785100286532951053e+00 5.029079975627447017e-16
7.808022922636102869e+00 4.683800930076647435e-16
7.830945558739254686e+00 4.361469326134683300e-16
7.853868194842406503e+00 4.060626326312148875e-16
7.876790830945558319e+00 3.779900194246864547e-16
7.899713467048710136e+00 3.518001559842545422e-16
7.922636103151861953e+00 3.273718904744733954e-16
7.945558739255013769e+00 3.045914260737264421e-16
7.968481375358165586e+00 2.833519113679924009e-16
7.991404011461317403e+00 2.635530505662859762e-16
8.014326647564470107e+00 2.451007328124431479e-16
8.037249283667621924e+00 2.279066798765542097e-16
8.060171919770773741e+00 2.118881115193416393e-16
8.083094555873925557e+00 1.969674278340764980e-16
8.106017191977077374e+00 1.830719078830152029e-16
8.128939828080229191e+00 1.701334239587879542e-16
8.151862464183381007e+00 1.580881708154983273e-16
8.174785100286532824e+00 1.468764092294247060e-16
8.197707736389684641e+00 1.364422232650186676e-16
8.220630372492836457e+00 1.267332906382806602e-16
8.243553008595988274e+00 1.177006655864486121e-16
8.266475644699140091e+00 1.092985736701758864e-16
8.289398280802291907e+00 1.014842179518998242e-16
8.312320916905443724e+00 9.421759601183980582e-17
8.335243553008595541e+00 8.746132728092037486e-17
8.358166189111747357e+00 8.118049018783396204e-17
8.381088825214899174e+00 7.534246863535639205e-17
8.404011461318050991e+00 6.991680733885374312e-17
8.426934097421202807e+00 6.487507557761523834e-17
8.449856733524356400e+00 6.019073892715271902e-17
8.472779369627506441e+00 5.583903855789299238e-17
8.495702005730660034e+00 5.179687770268685796e-17
8.518624641833810074e+00 4.804271491228321382e-17
8.541547277936963667e+00 4.455646373424593517e-17
8.564469914040113707e+00 4.131939846682485890e-17
8.587392550143267300e+00 3.831406565485892315e-17
8.610315186246417340e+00 3.552420101001977106e-17
8.633237822349570934e+00 3.293465145243859523e-17
8.656160458452720974e+00 3.053130198511675469e-17
8.679083094555874567e+00 2.830100712637126948e-17
8.702005730659024607e+00 2.623152663901326707e-17
8.724928366762178200e+00 2.431146530789306975e-17
8.747851002865328240e+00 2.253021652996480074e-17
8.770773638968481833e+00 2.087790949303515288e-17
8.793696275071631874e+00 1.934535973095194688e-17
8.816618911174785467e+00 1.792402285408299075e-17
8.839541547277935507e+00 1.660595126461351769e-17
8.862464183381089100e+00 1.538375367638868531e-17
8.885386819484239140e+00 1.425055726881810120e-17
8.908309455587392733e+00 1.319997231369148388e-17
8.931232091690544550e+00 1.222605912269298024e-17
8.954154727793696367e+00 1.132329717190613600e-17
8.977077363896848183e+00 1.048655626772761150e-17
9.000000000000000000e+00 9.711069626331823969e-18
