# log10(T) rate(cm^3/s)
# Total Recomb Rates
1.000000000000000000e+00 1.084786440763654585e-10
1.022922636103151817e+00 1.053974320772120853e-10
1.045845272206303633e+00 1.023977930487170758e-10
1.068767908309455672e+00 9.947762689589205176e-11
1.091690544412607489e+00 9.663488841433788134e-11
1.114613180515759305e+00 9.386758584901226427e-11
1.137535816618911122e+00 9.117377948983602569e-11
1.160458452722062939e+00 8.855158030316574135e-11
1.183381088825214977e+00 8.599914859818691698e-11
1.206303724928366794e+00 8.351469272730947353e-11
1.229226361031518611e+00 8.109646781967077464e-11
1.252148997134670427e+00 7.874277454687626058e-11
1.275071633237822244e+00 7.645195792013326684e-11
1.297994269340974283e+00 7.422240611795593869e-11
1.320916905444126099e+00 7.205254934364293525e-11
1.343839541547277916e+00 6.994085871175228586e-11
1.366762177650429733e+00 6.788584516282009588e-11
1.389684813753581771e+00 6.588605840559109870e-11
1.412607449856733588e+00 6.394008588605110034e-11
1.435530085959885405e+00 6.204655178257152566e-11
1.458452722063037221e+00 6.020411602649741973e-11
1.481375358166189038e+00 5.841147334752960654e-11
1.504297994269340855e+00 5.666735234327231532e-11
1.527220630372492671e+00 5.497051457233536288e-11
1.550143266475644710e+00 5.331975367040012997e-11
1.573065902578796527e+00 5.171389448867676100e-11
1.595988538681948565e+00 5.015179225419663136e-11
1.618911174785100382e+00 4.863233175140428897e-11
1.641833810888252199e+00 4.715442652452752019e-11
1.664756446991404015e+00 4.571701810022288552e-11
1.687679083094555832e+00 4.431907523001007816e-11
1.710601719197707649e+00 4.295959315202353472e-11
1.733524355300859465e+00 4.163759287162657504e-11
1.756446991404011282e+00 4.035212046044762332e-11
1.779369627507163321e+00 3.910224637341295185e-11
1.802292263610315137e+00 3.788706478336515541e-11
1.825214899713467176e+00 3.670569293286950812e-11
1.848137535816618993e+00 3.555727050282454623e-11
1.871060171919770809e+00 3.444095899750582157e-11
1.893982808022922626e+00 3.335594114568419767e-11
1.916905444126074443e+00 3.230142031747193193e-11
1.939828080229226259e+00 3.127661995656169709e-11
1.962750716332378076e+00 3.028078302753416461e-11
1.985673352435529893e+00 2.931317147792048680e-11
2.008595988538681709e+00 2.837306571471617997e-11
2.031518624641833526e+00 2.745976409505173213e-11
2.054441260744985343e+00 2.657258243073485171e-11
2.077363896848137603e+00 2.571085350638716481e-11
2.100286532951289420e+00 2.487392661090617490e-11
2.123209169054441237e+00 2.406116708199038187e-11
2.146131805157593053e+00 2.327195586347232674e-11
2.169054441260744870e+00 2.250568907521056782e-11
2.191977077363897131e+00 2.176177759529679283e-11
2.214899713467048947e+00 2.103964665433980026e-11
2.237822349570200764e+00 2.033873544159221599e-11
2.260744985673352581e+00 1.965849672269002425e-11
2.283667621776504397e+00 1.899839646877835607e-11
2.306590257879656214e+00 1.835791349679988305e-11
2.329512893982808031e+00 1.773653912072465215e-11
2.352435530085959847e+00 1.713377681350213285e-11
2.375358166189111664e+00 1.654914187951788620e-11
2.398280802292263481e+00 1.598216113733795346e-11
2.421203438395415297e+00 1.543237261252540299e-11
2.444126074498567114e+00 1.489932524031297001e-11
2.467048710601718930e+00 1.438257857791636851e-11
2.489971346704870747e+00 1.388170252627197715e-11
2.512893982808022564e+00 1.339627706098228298e-11
2.535816618911174825e+00 1.292589197225141160e-11
2.558739255014326641e+00 1.247014661359201108e-11
2.581661891117478458e+00 1.202864965908351128e-11
2.604584527220630275e+00 1.160101886896050387e-11
2.627507163323782091e+00 1.118688086330840525e-11
2.650429799426934352e+00 1.078587090364211832e-11
2.673352435530086169e+00 1.039763268214212977e-11
2.696275071633237985e+00 1.002181811832067481e-11
2.719197707736389802e+00 9.658087162889769357e-12
2.742120343839541619e+00 9.306107608601337478e-12
2.765042979942693435e+00 8.965554907828917452e-12
2.787965616045845252e+00 8.636111996659439161e-12
2.810888252148997069e+00 8.317469125263291023e-12
2.833810888252148885e+00 8.009323694310364738e-12
2.856733524355300702e+00 7.711380097200157065e-12
2.879656160458452518e+00 7.423349567874116122e-12
2.902578796561604335e+00 7.144950033979523943e-12
2.925501432664756152e+00 6.875905975155174751e-12
2.948424068767907968e+00 6.615948286210879119e-12
2.971346704871059785e+00 6.364814144974756398e-12
2.994269340974212046e+00 6.122246884584833677e-12
3.017191977077363862e+00 5.887995870004401821e-12
3.040114613180515679e+00 5.661816378543829687e-12
3.063037249283667496e+00 5.443469484175590335e-12
3.085959885386819312e+00 5.232721945433279077e-12
3.108882521489971129e+00 5.029346096690272596e-12
3.131805157593122946e+00 4.833119742618675378e-12
3.154727793696275207e+00 4.643826055634809017e-12
3.177650429799427023e+00 4.461253476143348375e-12
3.200573065902578840e+00 4.285195615398391438e-12
3.223495702005730656e+00 4.115451160806539206e-12
3.246418338108882473e+00 3.951823783503682639e-12
3.269340974212034290e+00 3.794122048044559133e-12
3.292263610315186106e+00 3.642159324051403083e-12
3.315186246418337923e+00 3.495753699675689501e-12
3.338108882521489740e+00 3.354727896734632420e-12
3.361031518624641556e+00 3.218909187392105032e-12
3.383954154727793817e+00 3.088129312261493392e-12
3.406876790830945634e+00 2.962224399816132845e-12
3.429799426934097450e+00 2.841034887000914899e-12
3.452722063037249267e+00 2.724405440946776281e-12
3.475644699140401084e+00 2.612184881697648977e-12
3.498567335243552900e+00 2.504226105867376962e-12
3.521489971346704717e+00 2.400386011151798347e-12
3.544412607449856534e+00 2.300525421628829733e-12
3.567335243553008350e+00 2.204509013786704181e-12
3.590257879656160167e+00 2.112205243227760474e-12
3.613180515759312428e+00 2.023486272002060943e-12
3.636103151862464244e+00 1.938227896531809720e-12
3.659025787965616061e+00 1.856309476093879206e-12
3.681948424068767878e+00 1.777613861833901042e-12
3.704871060171919694e+00 1.702027326291035105e-12
3.727793696275071511e+00 1.629439493418030855e-12
3.750716332378223328e+00 1.559743269086207767e-12
3.773638968481375144e+00 1.492834772069759473e-12
3.796561604584526961e+00 1.428613265508106894e-12
3.819484240687678778e+00 1.366981088849068288e-12
3.842406876790831038e+00 1.307843590279250986e-12
3.865329512893982855e+00 1.251109059651364223e-12
3.888252148997134672e+00 1.196688661921088741e-12
3.911174785100286488e+00 1.144496371108749081e-12
3.934097421203438305e+00 1.094448904803270622e-12
3.957020057306590122e+00 1.046465659227843743e-12
3.979942693409741938e+00 1.000468644888314726e-12
4.002865329512893311e+00 9.563824228266441274e-13
4.025787965616045128e+00 9.141340415027546225e-13
4.048710601719197832e+00 8.736529743288585676e-13
4.071633237822349649e+00 8.348710578808010773e-13
4.094555873925501466e+00 7.977224308111809351e-13
4.117478510028653282e+00 7.621434734890498085e-13
4.140401146131805099e+00 7.280727483907955650e-13
4.163323782234956916e+00 6.954509412665961677e-13
4.186246418338108732e+00 6.642208031068359843e-13
4.209169054441260549e+00 6.343270929337296722e-13
4.232091690544412366e+00 6.057165214467785120e-13
4.255014326647564182e+00 5.783376955599067423e-13
4.277936962750716887e+00 5.521410638902393005e-13
4.300859598853868704e+00 5.270788633073183435e-13
4.323782234957020520e+00 5.031050667542180028e-13
4.346704871060172337e+00 4.801753327619748969e-13
4.369627507163324154e+00 4.582469575002712286e-13
4.392550143266475970e+00 4.372788310397055988e-13
4.415472779369627787e+00 4.172314011037507331e-13
4.438395415472779604e+00 3.980666505602280870e-13
4.461318051575931420e+00 3.797481001365571857e-13
4.484240687679083237e+00 3.622408564951661744e-13
4.507163323782235054e+00 3.455117390755200704e-13
4.530085959885386870e+00 3.295295377655005873e-13
4.553008595988538687e+00 3.142654771022929522e-13
4.575931232091690504e+00 2.996939888736334604e-13
4.598853868194842320e+00 2.857939185074466805e-13
4.621776504297994137e+00 2.725503034659074223e-13
4.644699140401145954e+00 2.599568539716154552e-13
4.667621776504297770e+00 2.480192277543843580e-13
4.690544412607449587e+00 2.367591139619807296e-13
4.713467048710601404e+00 2.262190257956651897e-13
4.736389684813753220e+00 2.164675541719910231e-13
4.759312320916905037e+00 2.076046724762705795e-13
4.782234957020056854e+00 1.997665299090170970e-13
4.805157593123208670e+00 1.931290569623742559e-13
4.828080229226360487e+00 1.879096590821770123e-13
4.851002865329512304e+00 1.843663145788472710e-13
4.873925501432664120e+00 1.827935294962026083e-13
4.896848137535815937e+00 1.835148297997657905e-13
4.919770773638967754e+00 1.868717693453181120e-13
4.942693409742119570e+00 1.932097678465732263e-13
4.965616045845272275e+00 2.028614264430407322e-13
4.988538681948424092e+00 2.161282584212580162e-13
5.011461318051575908e+00 2.332619833418906354e-13
5.034383954154727725e+00 2.544466388201873954e-13
5.057306590257879542e+00 2.797827536319157263e-13
5.080229226361031358e+00 3.092747013078100007e-13
5.103151862464183175e+00 3.428221307801817743e-13
5.126074498567334992e+00 3.802160759525955879e-13
5.148997134670486808e+00 4.211400113029526932e-13
5.171919770773638625e+00 4.651757794151746943e-13
5.194842406876790442e+00 5.118139997919449958e-13
5.217765042979942258e+00 5.604683018747059662e-13
5.240687679083094075e+00 6.104925266171045744e-13
5.263610315186245892e+00 6.611999194395820695e-13
5.286532951289397708e+00 7.118832939473082992e-13
5.309455587392550413e+00 7.618351744034110835e-13
5.332378223495702230e+00 8.103670142951830712e-13
5.355300859598854046e+00 8.568267237587707825e-13
5.378223495702005863e+00 9.006139040799585782e-13
5.401146131805157680e+00 9.411923671921348717e-13
5.424068767908309496e+00 9.780996978744839590e-13
5.446991404011461313e+00 1.010953784530119299e-12
5.469914040114613130e+00 1.039456392268307713e-12
5.492836676217764946e+00 1.063393973856520999e-12
5.515759312320916763e+00 1.082636007141814030e-12
5.538681948424068580e+00 1.097131211435415810e-12
5.561604584527220396e+00 1.106902031743887229e-12
5.584527220630372213e+00 1.112037791667322507e-12
5.607449856733524030e+00 1.112686907211036458e-12
5.630372492836675846e+00 1.109048529031065757e-12
5.653295128939827663e+00 1.101363944145971641e-12
5.676217765042979480e+00 1.089908024025100014e-12
5.699140401146131296e+00 1.074980957869629208e-12
5.722063037249283113e+00 1.056900460917167213e-12
5.744985673352435818e+00 1.035994600171717062e-12
5.767908309455587634e+00 1.012595335911248456e-12
5.790830945558739451e+00 9.870328378972885353e-13
5.813753581661891268e+00 9.596306011377075310e-13
5.836676217765043084e+00 9.307013576418121982e-13
5.859598853868194901e+00 9.005437578249926448e-13
5.882521489971346718e+00 8.694397777839989851e-13
5.905444126074498534e+00 8.376527961134460203e-13
5.928366762177650351e+00 8.054262757000303736e-13
5.951289398280802168e+00 7.729829813901903606e-13
5.974212034383953984e+00 7.405246629459555901e-13
5.997134670487105801e+00 7.082321336710172188e-13
6.020057306590257618e+00 6.762656779376259555e-13
6.042979942693409434e+00 6.447657250668494051e-13
6.065902578796561251e+00 6.138537321684822759e-13
6.088825214899713067e+00 5.836332242598534411e-13
6.111747851002864884e+00 5.541909459494301569e-13
6.134670487106016701e+00 5.255980849489360236e-13
6.157593123209168517e+00 4.979115334809469271e-13
6.180515759312320334e+00 4.711751591418490169e-13
6.203438395415473039e+00 4.454210618693757488e-13
6.226361031518624856e+00 4.206707982919838854e-13
6.249283667621776672e+00 3.969365588748863754e-13
6.272206303724928489e+00 3.742222869181590191e-13
6.295128939828080306e+00 3.525247316163905255e-13
6.318051575931232122e+00 3.318344300799284808e-13
6.340974212034383939e+00 3.121366154763747038e-13
6.363896848137535756e+00 2.934120503144713909e-13
6.386819484240687572e+00 2.756377854005968847e-13
6.409742120343839389e+00 2.587878461912113486e-13
6.432664756446991206e+00 2.428338491825889310e-13
6.455587392550143022e+00 2.277455516600851189e-13
6.478510028653294839e+00 2.134913386085965767e-13
6.501432664756446655e+00 2.000386508963994609e-13
6.524355300859598472e+00 1.873543590156557042e-13
6.547277936962750289e+00 1.754050867207492112e-13
6.570200573065902105e+00 1.641574888732483750e-13
6.593123209169053922e+00 1.535784876996222979e-13
6.616045845272205739e+00 1.436354715119273799e-13
6.638968481375357555e+00 1.342964597469674494e-13
6.661891117478510260e+00 1.255302379579713755e-13
6.684813753581662077e+00 1.173064661545736463e-13
6.707736389684813894e+00 1.095957636398901089e-13
6.730659025787965710e+00 1.023697732442423992e-13
6.753581661891117527e+00 9.560120760861880522e-14
6.776504297994269344e+00 8.926387993119264733e-14
6.799426934097421160e+00 8.333272136000157684e-14
6.822349570200572977e+00 7.778378699628690496e-14
6.845272206303724793e+00 7.259425226737058402e-14
6.868194842406876610e+00 6.774240123611687346e-14
6.891117478510028427e+00 6.320760823636670026e-14
6.914040114613180243e+00 5.897031406025898344e-14
6.936962750716332060e+00 5.501199777382526437e-14
6.959885386819483877e+00 5.131514510120901702e-14
6.982808022922635693e+00 4.786321419472707012e-14
7.005730659025787510e+00 4.464059949705871846e-14
7.028653295128939327e+00 4.163259430236033961e-14
7.051575931232091143e+00 3.882535253426239141e-14
7.074498567335242960e+00 3.620585017970547443e-14
7.097421203438395665e+00 3.376184674761121868e-14
7.120343839541547482e+00 3.148184705968320678e-14
7.143266475644699298e+00 2.935506362643626201e-14
7.166189111747851115e+00 2.737137981415624965e-14
7.189111747851002931e+00 2.552131396720948642e-14
7.212034383954154748e+00 2.379598461433687853e-14
7.234957020057306565e+00 2.218707685669072908e-14
7.257879656160458381e+00 2.068681000886948954e-14
7.280802292263610198e+00 1.928790654158274578e-14
7.303724928366762015e+00 1.798356235538803068e-14
7.326647564469913831e+00 1.676741839877353124e-14
7.349570200573065648e+00 1.563353363034932495e-14
7.372492836676217465e+00 1.457635931372061532e-14
7.395415472779369281e+00 1.359071462445367938e-14
7.418338108882521098e+00 1.267176354114116855e-14
7.441260744985672915e+00 1.181499298669117123e-14
7.464183381088824731e+00 1.101619218139347944e-14
7.487106017191976548e+00 1.027143316586936413e-14
7.510028653295128365e+00 9.577052449523809677e-15
7.532951289398280181e+00 8.929633738445714487e-15
7.555873925501432886e+00 8.325991695715063676e-15
7.578796561604584703e+00 7.763156686665230463e-15
7.601719197707736519e+00 7.238360461714949943e-15
7.624641833810888336e+00 6.749022729846123673e-15
7.647564469914040153e+00 6.292738576583757418e-15
7.670487106017191969e+00 5.867266681372828788e-15
7.693409742120343786e+00 5.470518290487639800e-15
7.716332378223495603e+00 5.100546903005931787e-15
7.739255014326647419e+00 4.755538628893024833e-15
7.762177650429799236e+00 4.433803179836885459e-15
7.785100286532951053e+00 4.133765455124346712e-15
7.808022922636102869e+00 3.853957686528266972e-15
7.830945558739254686e+00 3.593012107864932180e-15
7.853868194842406503e+00 3.349654116564181365e-15
7.876790830945558319e+00 3.122695896258003573e-15
7.899713467048710136e+00 2.911030471025854646e-15
7.922636103151861953e+00 2.713626163527986517e-15
7.945558739255013769e+00 2.529521430804870709e-15
7.968481375358165586e+00 2.357820053016163240e-15
7.991404011461317403e+00 2.197686651832905132e-15
8.014326647564470107e+00 2.048342516579005692e-15
8.037249283667621924e+00 1.909061717541045211e-15
8.060171919770773741e+00 1.779167487128011985e-15
8.083094555873925557e+00 1.658028850764968531e-15
8.106017191977077374e+00 1.545057490546708181e-15
8.128939828080229191e+00 1.439704825760597817e-15
8.151862464183381007e+00 1.341459295412868142e-15
8.174785100286532824e+00 1.249843828861280775e-15
8.197707736389684641e+00 1.164413491571039848e-15
8.220630372492836457e+00 1.084753293871954074e-15
8.243553008595988274e+00 1.010476151405178314e-15
8.266475644699140091e+00 9.412209867094751484e-16
8.289398280802291907e+00 8.766509621120212270e-16
8.312320916905443724e+00 8.164518347594009236e-16
8.335243553008595541e+00 7.603304252528824718e-16
8.358166189111747357e+00 7.080131919403587613e-16
8.381088825214899174e+00 6.592449034676749100e-16
8.404011461318050991e+00 6.137874027064438485e-16
8.426934097421202807e+00 5.714184556558885452e-16
8.449856733524356400e+00 5.319306793647009510e-16
8.472779369627506441e+00 4.951305433372436399e-16
8.495702005730660034e+00 4.608374392782965764e-16
8.518624641833810074e+00 4.288828143941064730e-16
8.541547277936963667e+00 3.991093638055765396e-16
8.564469914040113707e+00 3.713702779447386833e-16
8.587392550143267300e+00 3.455285410983552785e-16
8.610315186246417340e+00 3.214562775353450913e-16
8.633237822349570934e+00 2.990341419077962940e-16
8.656160458452720974e+00 2.781507508510515994e-16
8.679083094555874567e+00 2.587021529268454868e-16
8.702005730659024607e+00 2.405913342568594385e-16
8.724928366762178200e+00 2.237277573824823045e-16
8.747851002865328240e+00 2.080269310618599384e-16
8.770773638968481833e+00 1.934100088776571888e-16
8.793696275071631874e+00 1.798034146799177741e-16
8.816618911174785467e+00 1.671384930281645781e-16
8.839541547277935507e+00 1.553511829268218545e-16
8.862464183381089100e+00 1.443817132682933081e-16
8.885386819484239140e+00 1.341743185098270873e-16
8.908309455587392733e+00 1.246769732137479013e-16
8.931232091690544550e+00 1.158411441768034711e-16
8.954154727793696367e+00 1.076215589633666251e-16
8.977077363896848183e+00 9.997598973994857027e-17
9.000000000000000000e+00 9.286505138507748795e-17
