# log10(T) rate(cm^3/s)
# Total Recomb Rates
1.000000000000000000e+00 1.664687860274782314e-09
1.022922636103151817e+00 1.615498631373703964e-09
1.045845272206303633e+00 1.567696281744672233e-09
1.068767908309455672e+00 1.521243939981639471e-09
1.091690544412607489e+00 1.476105660595729982e-09
1.114613180515759305e+00 1.432246400907996553e-09
1.137535816618911122e+00 1.389631998583283944e-09
1.160458452722062939e+00 1.348229149785656766e-09
1.183381088825214977e+00 1.308005387936307470e-09
1.206303724928366794e+00 1.268929063055285303e-09
1.229226361031518611e+00 1.230969321668837310e-09
1.252148997134670427e+00 1.194096087264575336e-09
1.275071633237822244e+00 1.158280041277158209e-09
1.297994269340974283e+00 1.123492604587572439e-09
1.320916905444126099e+00 1.089705919519600772e-09
1.343839541547277916e+00 1.056892832317452210e-09
1.366762177650429733e+00 1.025026876089028112e-09
1.389684813753581771e+00 9.940822541996950638e-10
1.412607449856733588e+00 9.640338241019287771e-10
1.435530085959885405e+00 9.348570815865961446e-10
1.458452722063037221e+00 9.065281454421350473e-10
1.481375358166189038e+00 8.790237425084143956e-10
1.504297994269340855e+00 8.523211931129293538e-10
1.527220630372492671e+00 8.263983968792120200e-10
1.550143266475644710e+00 8.012338189043467432e-10
1.573065902578796527e+00 7.768064763248244031e-10
1.595988538681948565e+00 7.530959253568673869e-10
1.618911174785100382e+00 7.300822490814203959e-10
1.641833810888252199e+00 7.077460467081241619e-10
1.664756446991404015e+00 6.860684261255236741e-10
1.687679083094555832e+00 6.650310038199203130e-10
1.710601719197707649e+00 6.446159206732140888e-10
1.733524355300859465e+00 6.248058900531920863e-10
1.756446991404011282e+00 6.055843075148840806e-10
1.779369627507163321e+00 5.869354706083564182e-10
1.802292263610315137e+00 5.688449829446947667e-10
1.825214899713467176e+00 5.513004469050290722e-10
1.848137535816618993e+00 5.342925791804704338e-10
1.871060171919770809e+00 5.178169041385492351e-10
1.893982808022922626e+00 5.018761803095991967e-10
1.916905444126074443e+00 4.864836826176711721e-10
1.939828080229226259e+00 4.716673872583768004e-10
1.962750716332378076e+00 4.574749836004245173e-10
1.985673352435529893e+00 4.439794742437746192e-10
2.008595988538681709e+00 4.312849380715037441e-10
2.031518624641833526e+00 4.195318500241045272e-10
2.054441260744985343e+00 4.089012101526743463e-10
2.077363896848137603e+00 3.996166680129623608e-10
2.100286532951289420e+00 3.919438638278894608e-10
2.123209169054441237e+00 3.861863579531906416e-10
2.146131805157593053e+00 3.826777794199335483e-10
2.169054441260744870e+00 3.817701680933757766e-10
2.191977077363897131e+00 3.838188730675281184e-10
2.214899713467048947e+00 3.891647530362589200e-10
2.237822349570200764e+00 3.981147524690561127e-10
2.260744985673352581e+00 4.109221578104585739e-10
2.283667621776504397e+00 4.277679419287919252e-10
2.306590257879656214e+00 4.487445717211550589e-10
2.329512893982808031e+00 4.738434904645085726e-10
2.352435530085959847e+00 5.029472162663875719e-10
2.375358166189111664e+00 5.358266548542290504e-10
2.398280802292263481e+00 5.721438479811948238e-10
2.421203438395415297e+00 6.114600059735378116e-10
2.444126074498567114e+00 6.532483365638042006e-10
2.467048710601718930e+00 6.969109052885685995e-10
2.489971346704870747e+00 7.417985584555843738e-10
2.512893982808022564e+00 7.872328118894380827e-10
2.535816618911174825e+00 8.325285542847750709e-10
2.558739255014326641e+00 8.770164258386717382e-10
2.581661891117478458e+00 9.200638021554395263e-10
2.604584527220630275e+00 9.610934316501045688e-10
2.627507163323782091e+00 9.995989340236897382e-10
2.650429799426934352e+00 1.035156560391805006e-09
2.673352435530086169e+00 1.067432834186717902e-09
2.696275071633237985e+00 1.096187926157521886e-09
2.719197707736389802e+00 1.121274854505269079e-09
2.742120343839541619e+00 1.142634828213315129e-09
2.765042979942693435e+00 1.160289252838823169e-09
2.787965616045845252e+00 1.174329079086851596e-09
2.810888252148997069e+00 1.184902283798705921e-09
2.833810888252148885e+00 1.192200323391435607e-09
2.856733524355300702e+00 1.196444389637063308e-09
2.879656160458452518e+00 1.197872231071097489e-09
2.902578796561604335e+00 1.196726189508456862e-09
2.925501432664756152e+00 1.193242953182153494e-09
2.948424068767907968e+00 1.187645361049358779e-09
2.971346704871059785e+00 1.180136422207273352e-09
2.994269340974212046e+00 1.170895554066008770e-09
3.017191977077363862e+00 1.160076904160968945e-09
3.040114613180515679e+00 1.147809510993255606e-09
3.063037249283667496e+00 1.134198983077937072e-09
3.085959885386819312e+00 1.119330332963890211e-09
3.108882521489971129e+00 1.103271591929714458e-09
3.131805157593122946e+00 1.086077846749861763e-09
3.154727793696275207e+00 1.067795376425663723e-09
3.177650429799427023e+00 1.048465617621137673e-09
3.200573065902578840e+00 1.028128746419274777e-09
3.223495702005730656e+00 1.006826725272706473e-09
3.246418338108882473e+00 9.846057230132398198e-10
3.269340974212034290e+00 9.615178690180940421e-10
3.292263610315186106e+00 9.376223477950413434e-10
3.315186246418337923e+00 9.129858761198814668e-10
3.338108882521489740e+00 8.876826311388549367e-10
3.361031518624641556e+00 8.617937149630620266e-10
3.383954154727793817e+00 8.354062501777333584e-10
3.406876790830945634e+00 8.086122026361872244e-10
3.429799426934097450e+00 7.815070243324615293e-10
3.452722063037249267e+00 7.541882014963090371e-10
3.475644699140401084e+00 7.267537827016198397e-10
3.498567335243552900e+00 6.993009499537417310e-10
3.521489971346704717e+00 6.719246834660475031e-10
3.544412607449856534e+00 6.447165589815571376e-10
3.567335243553008350e+00 6.177637056380928187e-10
3.590257879656160167e+00 5.911479428627984764e-10
3.613180515759312428e+00 5.649451067053007744e-10
3.636103151862464244e+00 5.392245692255853566e-10
3.659025787965616061e+00 5.140489486905764761e-10
3.681948424068767878e+00 4.894740029369101410e-10
3.704871060171919694e+00 4.655486928721425885e-10
3.727793696275071511e+00 4.423153974134115088e-10
3.750716332378223328e+00 4.198102551853052278e-10
3.773638968481375144e+00 3.980636023578757289e-10
3.796561604584526961e+00 3.771004707840145495e-10
3.819484240687678778e+00 3.569411070052981013e-10
3.842406876790831038e+00 3.376014716852729498e-10
3.865329512893982855e+00 3.190936813509376616e-10
3.888252148997134672e+00 3.014263603188938220e-10
3.911174785100286488e+00 2.846048801453103053e-10
3.934097421203438305e+00 2.686314760851742509e-10
3.957020057306590122e+00 2.535052436108624514e-10
3.979942693409741938e+00 2.392220314699197728e-10
4.002865329512893311e+00 2.257742594690752254e-10
4.025787965616045128e+00 2.131506977891469679e-10
4.048710601719197832e+00 2.013362492280504887e-10
4.071633237822349649e+00 1.903117759602150465e-10
4.094555873925501466e+00 1.800540084028520816e-10
4.117478510028653282e+00 1.705355663288395515e-10
4.140401146131805099e+00 1.617251125805321456e-10
4.163323782234956916e+00 1.535876489270154663e-10
4.186246418338108732e+00 1.460849530568834376e-10
4.209169054441260549e+00 1.391761464767934088e-10
4.232091690544412366e+00 1.328183758812764270e-10
4.255014326647564182e+00 1.269675855923637054e-10
4.277936962750716887e+00 1.215793556944336381e-10
4.300859598853868704e+00 1.166097789044332714e-10
4.323782234957020520e+00 1.120163482444293409e-10
4.346704871060172337e+00 1.077588265200492836e-10
4.369627507163324154e+00 1.038000670636557869e-10
4.392550143266475970e+00 1.001067532606007416e-10
4.415472779369627787e+00 9.665002264134971562e-11
4.438395415472779604e+00 9.340594079500395813e-11
4.461318051575931420e+00 9.035579220044234080e-11
4.484240687679083237e+00 8.748616027423788296e-11
4.507163323782235054e+00 8.478877801493942892e-11
4.530085959885386870e+00 8.226014339747766221e-11
4.553008595988538687e+00 7.990090919229487541e-11
4.575931232091690504e+00 7.771507355378491877e-11
4.598853868194842320e+00 7.570901355877643513e-11
4.621776504297994137e+00 7.389041686391920354e-11
4.644699140401145954e+00 7.226717510678317894e-11
4.667621776504297770e+00 7.084630553388716903e-11
4.690544412607449587e+00 6.963296431273346794e-11
4.713467048710601404e+00 6.862960657336988840e-11
4.736389684813753220e+00 6.783533558241123606e-11
4.759312320916905037e+00 6.724546815982339982e-11
4.782234957020056854e+00 6.685132724294284649e-11
4.805157593123208670e+00 6.664025701817043267e-11
4.828080229226360487e+00 6.659584261037451761e-11
4.851002865329512304e+00 6.669830585105297749e-11
4.873925501432664120e+00 6.692504158616920640e-11
4.896848137535815937e+00 6.725125535621234904e-11
4.919770773638967754e+00 6.765066276852809287e-11
4.942693409742119570e+00 6.809621294068877922e-11
4.965616045845272275e+00 6.856080236227481723e-11
4.988538681948424092e+00 6.901795072044205709e-11
5.011461318051575908e+00 6.944241603669460458e-11
5.034383954154727725e+00 6.981073234651222555e-11
5.057306590257879542e+00 7.010165872598511644e-11
5.080229226361031358e+00 7.029653346908399330e-11
5.103151862464183175e+00 7.037953150668500023e-11
5.126074498567334992e+00 7.033782669673316842e-11
5.148997134670486808e+00 7.016166344161314682e-11
5.171919770773638625e+00 6.984434428729301147e-11
5.194842406876790442e+00 6.938214183041996697e-11
5.217765042979942258e+00 6.877414450027511206e-11
5.240687679083094075e+00 6.802204666700944925e-11
5.263610315186245892e+00 6.712989410169784513e-11
5.286532951289397708e+00 6.610379609530620287e-11
5.309455587392550413e+00 6.495161553020341246e-11
5.332378223495702230e+00 6.368264787832835936e-11
5.355300859598854046e+00 6.230729946764259214e-11
5.378223495702005863e+00 6.083677442099593048e-11
5.401146131805157680e+00 5.928277845843496172e-11
5.424068767908309496e+00 5.765724631783698790e-11
5.446991404011461313e+00 5.597209796199948203e-11
5.469914040114613130e+00 5.423902708838742030e-11
5.492836676217764946e+00 5.246932383008205613e-11
5.515759312320916763e+00 5.067373201730034069e-11
5.538681948424068580e+00 4.886234002916622682e-11
5.561604584527220396e+00 4.704450315734567073e-11
5.584527220630372213e+00 4.522879455711281520e-11
5.607449856733524030e+00 4.342298128601596484e-11
5.630372492836675846e+00 4.163402161464940506e-11
5.653295128939827663e+00 3.986807971159387991e-11
5.676217765042979480e+00 3.813055391800705789e-11
5.699140401146131296e+00 3.642611509335841852e-11
5.722063037249283113e+00 3.475875188768697531e-11
5.744985673352435818e+00 3.313182023495796797e-11
5.767908309455587634e+00 3.154809482877768689e-11
5.790830945558739451e+00 3.000982080430833297e-11
5.813753581661891268e+00 2.851876428400647861e-11
5.836676217765043084e+00 2.707626083191181543e-11
5.859598853868194901e+00 2.568326119021381444e-11
5.882521489971346718e+00 2.434037393713737164e-11
5.905444126074498534e+00 2.304790490646725949e-11
5.928366762177650351e+00 2.180589335049086344e-11
5.951289398280802168e+00 2.061414491778460819e-11
5.974212034383953984e+00 1.947226156590707108e-11
5.997134670487105801e+00 1.837966854906366037e-11
6.020057306590257618e+00 1.733563862466326665e-11
6.042979942693409434e+00 1.633931362153181168e-11
6.065902578796561251e+00 1.538972351485834159e-11
6.088825214899713067e+00 1.448580316368995438e-11
6.111747851002864884e+00 1.362640688713172016e-11
6.134670487106016701e+00 1.281032108309636073e-11
6.157593123209168517e+00 1.203627512372784680e-11
6.180515759312320334e+00 1.130295078849825520e-11
6.203438395415473039e+00 1.060899051355894094e-11
6.226361031518624856e+00 9.953004739615701832e-12
6.249283667621776672e+00 9.333578627884679611e-12
6.272206303724928489e+00 8.749278384504907777e-12
6.295128939828080306e+00 8.198657390378240202e-12
6.318051575931232122e+00 7.680262279846512533e-12
6.340974212034383939e+00 7.192639053053730892e-12
6.363896848137535756e+00 6.734339248720412713e-12
6.386819484240687572e+00 6.303926151370820006e-12
6.409742120343839389e+00 5.899980963777351264e-12
6.432664756446991206e+00 5.521108844136820459e-12
6.455587392550143022e+00 5.165944689418535145e-12
6.478510028653294839e+00 4.833158541193351681e-12
6.501432664756446655e+00 4.521460496698248695e-12
6.524355300859598472e+00 4.229605023734497819e-12
6.547277936962750289e+00 3.956394600605528214e-12
6.570200573065902105e+00 3.700682628916773548e-12
6.593123209169053922e+00 3.461375595081300768e-12
6.616045845272205739e+00 3.237434483555254858e-12
6.638968481375357555e+00 3.027875469398240835e-12
6.661891117478510260e+00 2.831769938476710597e-12
6.684813753581662077e+00 2.648243899783147678e-12
6.707736389684813894e+00 2.476476865673616322e-12
6.730659025787965710e+00 2.315700282457646009e-12
6.753581661891117527e+00 2.165195596119586278e-12
6.776504297994269344e+00 2.024292036615832394e-12
6.799426934097421160e+00 1.892364199887249211e-12
6.822349570200572977e+00 1.768829500192849567e-12
6.845272206303724793e+00 1.653145557325026359e-12
6.868194842406876610e+00 1.544807574357689177e-12
6.891117478510028427e+00 1.443345752363477228e-12
6.914040114613180243e+00 1.348322779467329495e-12
6.936962750716332060e+00 1.259331423026845731e-12
6.959885386819483877e+00 1.175992245890036407e-12
6.982808022922635693e+00 1.097951460732823555e-12
7.005730659025787510e+00 1.024878930499994531e-12
7.028653295128939327e+00 9.564663179803396998e-13
7.051575931232091143e+00 8.924253835080523425e-13
7.074498567335242960e+00 8.324864266328339064e-13
7.097421203438395665e+00 7.763968652530822611e-13
7.120343839541547482e+00 7.239199440601195001e-13
7.143266475644699298e+00 6.748335630922700023e-13
7.166189111747851115e+00 6.289292166429851674e-13
7.189111747851002931e+00 5.860110326097169399e-13
7.212034383954154748e+00 5.458949025215962925e-13
7.234957020057306565e+00 5.084076928656258188e-13
7.257879656160458381e+00 4.733865288756473021e-13
7.280802292263610198e+00 4.406781425992127762e-13
7.303724928366762015e+00 4.101382777684271189e-13
7.326647564469913831e+00 3.816311447351197690e-13
7.349570200573065648e+00 3.550289194600912729e-13
7.372492836676217465e+00 3.302112812497460964e-13
7.395415472779369281e+00 3.070649845964499984e-13
7.418338108882521098e+00 2.854834610918514680e-13
7.441260744985672915e+00 2.653664479397051194e-13
7.464183381088824731e+00 2.466196400941917364e-13
7.487106017191976548e+00 2.291543634915556296e-13
7.510028653295128365e+00 2.128872672290854676e-13
7.532951289398280181e+00 1.977400328792986132e-13
7.555873925501432886e+00 1.836390994127125931e-13
7.578796561604584703e+00 1.705154024443108943e-13
7.601719197707736519e+00 1.583041267214007960e-13
7.624641833810888336e+00 1.469444709387263962e-13
7.647564469914040153e+00 1.363794241048581665e-13
7.670487106017191969e+00 1.265555527963205870e-13
7.693409742120343786e+00 1.174227987264702947e-13
7.716332378223495603e+00 1.089342861283373140e-13
7.739255014326647419e+00 1.010461385076025557e-13
7.762177650429799236e+00 9.371730436636850857e-14
7.785100286532951053e+00 8.690939153276252114e-14
7.808022922636102869e+00 8.058650975774577404e-14
7.830945558739254686e+00 7.471512126051781508e-14
7.853868194842406503e+00 6.926389891906028191e-14
7.876790830945558319e+00 6.420359181385743096e-14
7.899713467048710136e+00 5.950689784164594907e-14
7.922636103151861953e+00 5.514834312297883238e-14
7.945558739255013769e+00 5.110416793306211533e-14
7.968481375358165586e+00 4.735221889023326729e-14
7.991404011461317403e+00 4.387184714096842977e-14
8.014326647564470107e+00 4.064381228471086832e-14
8.037249283667621924e+00 3.765019178630510273e-14
8.060171919770773741e+00 3.487429562853194120e-14
8.083094555873925557e+00 3.230058596226248510e-14
8.106017191977077374e+00 2.991460151711483306e-14
8.128939828080229191e+00 2.770288654123483142e-14
8.151862464183381007e+00 2.565292404491183335e-14
8.174785100286532824e+00 2.375307312916300622e-14
8.197707736389684641e+00 2.199251018713516371e-14
8.220630372492836457e+00 2.036117377313915798e-14
8.243553008595988274e+00 1.884971294129866802e-14
8.266475644699140091e+00 1.744943886311440472e-14
8.289398280802291907e+00 1.615227954066503728e-14
8.312320916905443724e+00 1.495073743964153698e-14
8.335243553008595541e+00 1.383784987389535713e-14
8.358166189111747357e+00 1.280715198063295309e-14
8.381088825214899174e+00 1.185264213277043894e-14
8.404011461318050991e+00 1.096874964224040507e-14
8.426934097421202807e+00 1.015030461518781441e-14
8.449856733524356400e+00 9.392509826978343326e-15
8.472779369627506441e+00 8.690914491749993087e-15
8.495702005730660034e+00 8.041389807846714558e-15
8.518624641833810074e+00 7.440106166874554410e-15
8.541547277936963667e+00 6.883511920291228667e-15
8.564469914040113707e+00 6.368313603391763154e-15
8.587392550143267300e+00 5.891457522256453139e-15
8.610315186246417340e+00 5.450112614703887696e-15
8.633237822349570934e+00 5.041654501517684140e-15
8.656160458452720974e+00 4.663650649212319864e-15
8.679083094555874567e+00 4.313846570354088405e-15
8.702005730659024607e+00 3.990152991979294429e-15
8.724928366762178200e+00 3.690633926941203536e-15
8.747851002865328240e+00 3.413495587091246945e-15
8.770773638968481833e+00 3.157076081050189157e-15
8.793696275071631874e+00 2.919835842971923110e-15
8.816618911174785467e+00 2.700348742140863597e-15
8.839541547277935507e+00 2.497293826492961566e-15
8.862464183381089100e+00 2.309447656207076022e-15
8.885386819484239140e+00 2.135677186395876099e-15
8.908309455587392733e+00 1.974933160632237848e-15
8.931232091690544550e+00 1.826243979594837828e-15
8.954154727793696367e+00 1.688710011505379893e-15
8.977077363896848183e+00 1.561498313274175214e-15
9.000000000000000000e+00 1.443837733372939498e-15
