# log10(T) rate(cm^3/s)
# Total Recomb Rates
1.000000000000000000e+00 4.336066714643452324e-09
1.022922636103151817e+00 4.218651954615119715e-09
1.045845272206303633e+00 4.104318443771146840e-09
1.068767908309455672e+00 3.992986323627314400e-09
1.091690544412607489e+00 3.884577817288590097e-09
1.114613180515759305e+00 3.779017174998822482e-09
1.137535816618911122e+00 3.676230621098609283e-09
1.160458452722062939e+00 3.576146302354651050e-09
1.183381088825214977e+00 3.478694237624943993e-09
1.206303724928366794e+00 3.383806268825097320e-09
1.229226361031518611e+00 3.291416013161958693e-09
1.252148997134670427e+00 3.201458816601730226e-09
1.275071633237822244e+00 3.113871708540550743e-09
1.297994269340974283e+00 3.028593357646450153e-09
1.320916905444126099e+00 2.945564028842380040e-09
1.343839541547277916e+00 2.864725541400905099e-09
1.366762177650429733e+00 2.786021228121876659e-09
1.389684813753581771e+00 2.709395895565239174e-09
1.412607449856733588e+00 2.634795785311870853e-09
1.435530085959885405e+00 2.562168536226093263e-09
1.458452722063037221e+00 2.491463147694216018e-09
1.481375358166189038e+00 2.422629943814197715e-09
1.504297994269340855e+00 2.355620538512169780e-09
1.527220630372492671e+00 2.290387801562258499e-09
1.550143266475644710e+00 2.226885825486785309e-09
1.573065902578796527e+00 2.165069893314552808e-09
1.595988538681948565e+00 2.104896447175542732e-09
1.618911174785100382e+00 2.046323057710977424e-09
1.641833810888252199e+00 1.989308394278210484e-09
1.664756446991404015e+00 1.933812195930575626e-09
1.687679083094555832e+00 1.879795243152774042e-09
1.710601719197707649e+00 1.827219330332991003e-09
1.733524355300859465e+00 1.776047238953395040e-09
1.756446991404011282e+00 1.726242711481213197e-09
1.779369627507163321e+00 1.677770425943032653e-09
1.802292263610315137e+00 1.630595971165468296e-09
1.825214899713467176e+00 1.584685822665777527e-09
1.848137535816618993e+00 1.540007319176458355e-09
1.871060171919770809e+00 1.496528639788271068e-09
1.893982808022922626e+00 1.454218781696556032e-09
1.916905444126074443e+00 1.413047538536098142e-09
1.939828080229226259e+00 1.372985479290180763e-09
1.962750716332378076e+00 1.334003927759842365e-09
1.985673352435529893e+00 1.296074942579682201e-09
2.008595988538681709e+00 1.259171297766934229e-09
2.031518624641833526e+00 1.223266463790828545e-09
2.054441260744985343e+00 1.188334589149591065e-09
2.077363896848137603e+00 1.154350482442725889e-09
2.100286532951289420e+00 1.121289594926521047e-09
2.123209169054441237e+00 1.089128003540988278e-09
2.146131805157593053e+00 1.057842394396733827e-09
2.169054441260744870e+00 1.027410046710484980e-09
2.191977077363897131e+00 9.978088171782735250e-10
2.214899713467048947e+00 9.690171247754942310e-10
2.237822349570200764e+00 9.410139359732802440e-10
2.260744985673352581e+00 9.137787503608816719e-10
2.283667621776504397e+00 8.872915866639001399e-10
2.306590257879656214e+00 8.615329691484815804e-10
2.329512893982808031e+00 8.364839144017168658e-10
2.352435530085959847e+00 8.121259184787160973e-10
2.375358166189111664e+00 7.884409444069980344e-10
2.398280802292263481e+00 7.654114100389942468e-10
2.421203438395415297e+00 7.430201762436561646e-10
2.444126074498567114e+00 7.212505354282995123e-10
2.467048710601718930e+00 7.000862003819933897e-10
2.489971346704870747e+00 6.795112934319445696e-10
2.512893982808022564e+00 6.595103359044875412e-10
2.535816618911174825e+00 6.400682378824309295e-10
2.558739255014326641e+00 6.211702882506690168e-10
2.581661891117478458e+00 6.028021450220955121e-10
2.604584527220630275e+00 5.849498259360105711e-10
2.627507163323782091e+00 5.675996993213499978e-10
2.650429799426934352e+00 5.507384752171992577e-10
2.673352435530086169e+00 5.343531967432067151e-10
2.696275071633237985e+00 5.184312317126301402e-10
2.719197707736389802e+00 5.029602644809146249e-10
2.742120343839541619e+00 4.879282880228130557e-10
2.765042979942693435e+00 4.733235962312205640e-10
2.787965616045845252e+00 4.591347764310178769e-10
2.810888252148997069e+00 4.453507021013743156e-10
2.833810888252148885e+00 4.319605258000879527e-10
2.856733524355300702e+00 4.189536722836945529e-10
2.879656160458452518e+00 4.063198318172118567e-10
2.902578796561604335e+00 3.940489536675337288e-10
2.925501432664756152e+00 3.821312397746336030e-10
2.948424068767907968e+00 3.705571385948789834e-10
2.971346704871059785e+00 3.593173391109078612e-10
2.994269340974212046e+00 3.484027650026649369e-10
3.017191977077363862e+00 3.378045689743416395e-10
3.040114613180515679e+00 3.275141272321069311e-10
3.063037249283667496e+00 3.175230341076777574e-10
3.085959885386819312e+00 3.078230968229055430e-10
3.108882521489971129e+00 2.984063303907205666e-10
3.131805157593122946e+00 2.892649526479114004e-10
3.154727793696275207e+00 2.803913794153673505e-10
3.177650429799427023e+00 2.717782197815572107e-10
3.200573065902578840e+00 2.634182715051583183e-10
3.223495702005730656e+00 2.553045165328980129e-10
3.246418338108882473e+00 2.474301166288049508e-10
3.269340974212034290e+00 2.397884091112094823e-10
3.292263610315186106e+00 2.323729026939706998e-10
3.315186246418337923e+00 2.251772734285399293e-10
3.338108882521489740e+00 2.181953607436035664e-10
3.361031518624641556e+00 2.114211635791790286e-10
3.383954154727793817e+00 2.048488366121625045e-10
3.406876790830945634e+00 1.984726865704526503e-10
3.429799426934097450e+00 1.922871686328932148e-10
3.452722063037249267e+00 1.862868829123955511e-10
3.475644699140401084e+00 1.804665710197176233e-10
3.498567335243552900e+00 1.748211127054819679e-10
3.521489971346704717e+00 1.693455225781266650e-10
3.544412607449856534e+00 1.640349468955825297e-10
3.567335243553008350e+00 1.588846604285705472e-10
3.590257879656160167e+00 1.538900633935099173e-10
3.613180515759312428e+00 1.490466784531147796e-10
3.636103151862464244e+00 1.443501477828506451e-10
3.659025787965616061e+00 1.397962302015005570e-10
3.681948424068767878e+00 1.353807983641744950e-10
3.704871060171919694e+00 1.310998360161691585e-10
3.727793696275071511e+00 1.269494353061600193e-10
3.750716332378223328e+00 1.229257941572746651e-10
3.773638968481375144e+00 1.190252136946619074e-10
3.796561604584526961e+00 1.152440957282341849e-10
3.819484240687678778e+00 1.115789402893165130e-10
3.842406876790831038e+00 1.080263432199927322e-10
3.865329512893982855e+00 1.045829938139893870e-10
3.888252148997134672e+00 1.012456725079866668e-10
3.911174785100286488e+00 9.801124862229180304e-11
3.934097421203438305e+00 9.487667814985209918e-11
3.957020057306590122e+00 9.183900159262443928e-11
3.979942693409741938e+00 8.889534184435600027e-11
4.002865329512893311e+00 8.604290211886415037e-11
4.025787965616045128e+00 8.327896392293626621e-11
4.048710601719197832e+00 8.060088507300052298e-11
4.071633237822349649e+00 7.800609775474529779e-11
4.094555873925501466e+00 7.549210662488964206e-11
4.117478510028653282e+00 7.305648695433417488e-11
4.140401146131805099e+00 7.069688281193989570e-11
4.163323782234956916e+00 6.841100528820408927e-11
4.186246418338108732e+00 6.619663075812199925e-11
4.209169054441260549e+00 6.405159918253805588e-11
4.232091690544412366e+00 6.197381244730814977e-11
4.255014326647564182e+00 5.996123273960779527e-11
4.277936962750716887e+00 5.801188096073439746e-11
4.300859598853868704e+00 5.612383517476592458e-11
4.323782234957020520e+00 5.429522909244633988e-11
4.346704871060172337e+00 5.252425058968253221e-11
4.369627507163324154e+00 5.080914026004478040e-11
4.392550143266475970e+00 4.914819000067213112e-11
4.415472779369627787e+00 4.753974163099373141e-11
4.438395415472779604e+00 4.598218554368354124e-11
4.461318051575931420e+00 4.447395938727426623e-11
4.484240687679083237e+00 4.301354677986308366e-11
4.507163323782235054e+00 4.159947605334797810e-11
4.530085959885386870e+00 4.023031902764029470e-11
4.553008595988538687e+00 3.890468981430470796e-11
4.575931232091690504e+00 3.762124364908373009e-11
4.598853868194842320e+00 3.637867575276960851e-11
4.621776504297994137e+00 3.517572021989149613e-11
4.644699140401145954e+00 3.401114893469155574e-11
4.667621776504297770e+00 3.288377051386848029e-11
4.690544412607449587e+00 3.179242927557231372e-11
4.713467048710601404e+00 3.073600423413935532e-11
4.736389684813753220e+00 2.971340812006132021e-11
4.759312320916905037e+00 2.872358642468776229e-11
4.782234957020056854e+00 2.776551646916581981e-11
4.805157593123208670e+00 2.683820649712689780e-11
4.828080229226360487e+00 2.594069479063462571e-11
4.851002865329512304e+00 2.507204880891384742e-11
4.873925501432664120e+00 2.423136434938583530e-11
4.896848137535815937e+00 2.341776473053976394e-11
4.919770773638967754e+00 2.263039999617686994e-11
4.942693409742119570e+00 2.186844614056791230e-11
4.965616045845272275e+00 2.113110435407133934e-11
4.988538681948424092e+00 2.041760028876453492e-11
5.011461318051575908e+00 1.972718334364610287e-11
5.034383954154727725e+00 1.905912596897379243e-11
5.057306590257879542e+00 1.841272298930739411e-11
5.080229226361031358e+00 1.778729094483281837e-11
5.103151862464183175e+00 1.718216745054890040e-11
5.126074498567334992e+00 1.659671057290507281e-11
5.148997134670486808e+00 1.603029822348361178e-11
5.171919770773638625e+00 1.548232756932684451e-11
5.194842406876790442e+00 1.495221445951549914e-11
5.217765042979942258e+00 1.443939286761091027e-11
5.240687679083094075e+00 1.394331434957997438e-11
5.263610315186245892e+00 1.346344751682800822e-11
5.286532951289397708e+00 1.299927752397112233e-11
5.309455587392550413e+00 1.255030557098599050e-11
5.332378223495702230e+00 1.211604841938149540e-11
5.355300859598854046e+00 1.169603792204250652e-11
5.378223495702005863e+00 1.128982056640341035e-11
5.401146131805157680e+00 1.089695703061445241e-11
5.424068767908309496e+00 1.051702175237083146e-11
5.446991404011461313e+00 1.014960251008079208e-11
5.469914040114613130e+00 9.794300016055166925e-12
5.492836676217764946e+00 9.450727521407250309e-12
5.515759312320916763e+00 9.118510432358122465e-12
5.538681948424068580e+00 8.797285937648854187e-12
5.561604584527220396e+00 8.486702646767106032e-12
5.584527220630372213e+00 8.186420238702001577e-12
5.607449856733524030e+00 7.896109120947125460e-12
5.630372492836675846e+00 7.615450098477658785e-12
5.653295128939827663e+00 7.344134052433627607e-12
5.676217765042979480e+00 7.081861628247305104e-12
5.699140401146131296e+00 6.828342932958615306e-12
5.722063037249283113e+00 6.583297241468285544e-12
5.744985673352435818e+00 6.346452711484272931e-12
5.767908309455587634e+00 6.117546106922751378e-12
5.790830945558739451e+00 5.896322529530374012e-12
5.813753581661891268e+00 5.682535158500480938e-12
5.836676217765043084e+00 5.475944997861030740e-12
5.859598853868194901e+00 5.276320631417690310e-12
5.882521489971346718e+00 5.083437985040778756e-12
5.905444126074498534e+00 4.897080096090047327e-12
5.928366762177650351e+00 4.717036889776408400e-12
5.951289398280802168e+00 4.543104962264956241e-12
5.974212034383953984e+00 4.375087370328432655e-12
5.997134670487105801e+00 4.212793427365470206e-12
6.020057306590257618e+00 4.056038505602571932e-12
6.042979942693409434e+00 3.904643844303705138e-12
6.065902578796561251e+00 3.758436363815987211e-12
6.088825214899713067e+00 3.617248485284568482e-12
6.111747851002864884e+00 3.480917955874273711e-12
6.134670487106016701e+00 3.349287679340059992e-12
6.157593123209168517e+00 3.222205551792585726e-12
6.180515759312320334e+00 3.099524302509503372e-12
6.203438395415473039e+00 2.981101339647174123e-12
6.226361031518624856e+00 2.866798600711641355e-12
6.249283667621776672e+00 2.756482407651557745e-12
6.272206303724928489e+00 2.650023326439797473e-12
6.295128939828080306e+00 2.547296031014145475e-12
6.318051575931232122e+00 2.448179171451229275e-12
6.340974212034383939e+00 2.352555246251452844e-12
6.363896848137535756e+00 2.260310478616255076e-12
6.386819484240687572e+00 2.171334696602377530e-12
6.409742120343839389e+00 2.085521217041259203e-12
6.432664756446991206e+00 2.002766733114881002e-12
6.455587392550143022e+00 1.922971205482561703e-12
6.478510028653294839e+00 1.846037756856301372e-12
6.501432664756446655e+00 1.771872569925236919e-12
6.524355300859598472e+00 1.700384788532705316e-12
6.547277936962750289e+00 1.631486422012181930e-12
6.570200573065902105e+00 1.565092252591131389e-12
6.593123209169053922e+00 1.501119745774413097e-12
6.616045845272205739e+00 1.439488963621439377e-12
6.638968481375357555e+00 1.380122480833750234e-12
6.661891117478510260e+00 1.322945303572045831e-12
6.684813753581662077e+00 1.267884790924007297e-12
6.707736389684813894e+00 1.214870578946404568e-12
6.730659025787965710e+00 1.163834507207187592e-12
6.753581661891117527e+00 1.114710547755212276e-12
6.776504297994269344e+00 1.067434736447257105e-12
6.799426934097421160e+00 1.021945106563835782e-12
6.822349570200572977e+00 9.781816246471296249e-13
6.845272206303724793e+00 9.360861284960532998e-13
6.868194842406876610e+00 8.956022672551353303e-13
6.891117478510028427e+00 8.566754435354450164e-13
6.914040114613180243e+00 8.192527575073068001e-13
6.936962750716332060e+00 7.832829529059658241e-13
6.959885386819483877e+00 7.487163648927338055e-13
6.982808022922635693e+00 7.155048697154402513e-13
7.005730659025787510e+00 6.836018361132613751e-13
7.028653295128939327e+00 6.529620784121675481e-13
7.051575931232091143e+00 6.235418112583704197e-13
7.074498567335242960e+00 5.952986059382245009e-13
7.097421203438395665e+00 5.681913482340646079e-13
7.120343839541547482e+00 5.421801977664617253e-13
7.143266475644699298e+00 5.172265487743042620e-13
7.166189111747851115e+00 4.932929922850665914e-13
7.189111747851002931e+00 4.703432796284708064e-13
7.212034383954154748e+00 4.483422872476329646e-13
7.234957020057306565e+00 4.272559827626090460e-13
7.257879656160458381e+00 4.070513922420788381e-13
7.280802292263610198e+00 3.876965686397112802e-13
7.303724928366762015e+00 3.691605613525464904e-13
7.326647564469913831e+00 3.514133868595246648e-13
7.349570200573065648e+00 3.344260003990772174e-13
7.372492836676217465e+00 3.181702686454878198e-13
7.395415472779369281e+00 3.026189433445275375e-13
7.418338108882521098e+00 2.877456358696745884e-13
7.441260744985672915e+00 2.735247926610451683e-13
7.464183381088824731e+00 2.599316715099992744e-13
7.487106017191976548e+00 2.469423186532313103e-13
7.510028653295128365e+00 2.345335466410264193e-13
7.532951289398280181e+00 2.226829129452585468e-13
7.555873925501432886e+00 2.113686992736122779e-13
7.578796561604584703e+00 2.005698915574589194e-13
7.601719197707736519e+00 1.902661605817612803e-13
7.624641833810888336e+00 1.804378432263895012e-13
7.647564469914040153e+00 1.710659242892172074e-13
7.670487106017191969e+00 1.621320188624137301e-13
7.693409742120343786e+00 1.536183552343938296e-13
7.716332378223495603e+00 1.455077582909640522e-13
7.739255014326647419e+00 1.377836333902942623e-13
7.762177650429799236e+00 1.304299506874503766e-13
7.785100286532951053e+00 1.234312298853456972e-13
7.808022922636102869e+00 1.167725253900986695e-13
7.830945558739254686e+00 1.104394118499206636e-13
7.853868194842406503e+00 1.044179700578001645e-13
7.876790830945558319e+00 9.869477319938830383e-14
7.899713467048710136e+00 9.325687342862738328e-14
7.922636103151861953e+00 8.809178875479165614e-14
7.945558739255013769e+00 8.318749022572519659e-14
7.968481375358165586e+00 7.853238939316105540e-14
7.991404011461317403e+00 7.411532604708489823e-14
8.014326647564470107e+00 6.992555620716155395e-14
8.037249283667621924e+00 6.595274036027017345e-14
8.060171919770773741e+00 6.218693193418756378e-14
8.083094555873925557e+00 5.861856599842270714e-14
8.106017191977077374e+00 5.523844818412522980e-14
8.128939828080229191e+00 5.203774381587290447e-14
8.151862464183381007e+00 4.900796724898031442e-14
8.174785100286532824e+00 4.614097140676269132e-14
8.197707736389684641e+00 4.342893751293222879e-14
8.220630372492836457e+00 4.086436501499733636e-14
8.243553008595988274e+00 3.844006169517924870e-14
8.266475644699140091e+00 3.614913396595071291e-14
8.289398280802291907e+00 3.398497734784088688e-14
8.312320916905443724e+00 3.194126712763720833e-14
8.335243553008595541e+00 3.001194919554911329e-14
8.358166189111747357e+00 2.819123106028195167e-14
8.381088825214899174e+00 2.647357304130120419e-14
8.404011461318050991e+00 2.485367963785052724e-14
8.426934097421202807e+00 2.332649107452190446e-14
8.449856733524356400e+00 2.188717502336507484e-14
8.472779369627506441e+00 2.053111850266946674e-14
8.495702005730660034e+00 1.925391995265164815e-14
8.518624641833810074e+00 1.805138148835201751e-14
8.541547277936963667e+00 1.691950133006131211e-14
8.564469914040113707e+00 1.585446641160244993e-14
8.587392550143267300e+00 1.485264516674283094e-14
8.610315186246417340e+00 1.391058049395736060e-14
8.633237822349570934e+00 1.302498289965930513e-14
8.656160458452720974e+00 1.219272381991182897e-14
8.679083094555874567e+00 1.141082912048921312e-14
8.702005730659024607e+00 1.067647277501463022e-14
8.724928366762178200e+00 9.986970720727963723e-15
8.747851002865328240e+00 9.339774891268578871e-15
8.770773638968481833e+00 8.732467425665539215e-15
8.793696275071631874e+00 8.162755052543430579e-15
8.816618911174785467e+00 7.628463648350083459e-15
8.839541547277935507e+00 7.127532968221998567e-15
8.862464183381089100e+00 6.658011547900588703e-15
8.885386819484239140e+00 6.218051774923828983e-15
8.908309455587392733e+00 5.805905127122285705e-15
8.931232091690544550e+00 5.419917576268342756e-15
8.954154727793696367e+00 5.058525154545330418e-15
8.977077363896848183e+00 4.720249681336642163e-15
9.000000000000000000e+00 4.403694647672109654e-15
