# log10(T) rate(cm^3/s)
# Total Recomb Rates
1.000000000000000000e+00 2.141024129094412032e-10
1.022922636103151817e+00 2.182956959687519940e-10
1.045845272206303633e+00 2.232779804168306318e-10
1.068767908309455672e+00 2.289416178770798011e-10
1.091690544412607489e+00 2.351615279294378187e-10
1.114613180515759305e+00 2.417989514984886120e-10
1.137535816618911122e+00 2.487056821824530259e-10
1.160458452722062939e+00 2.557285379725546396e-10
1.183381088825214977e+00 2.627138425086497969e-10
1.206303724928366794e+00 2.695117065436166082e-10
1.229226361031518611e+00 2.759799329194625354e-10
1.252148997134670427e+00 2.819874080453608561e-10
1.275071633237822244e+00 2.874168856677277518e-10
1.297994269340974283e+00 2.921671111131771557e-10
1.320916905444126099e+00 2.961542732783382993e-10
1.343839541547277916e+00 2.993128052944978132e-10
1.366762177650429733e+00 3.015955816494278476e-10
1.389684813753581771e+00 3.029735789977848295e-10
1.412607449856733588e+00 3.034350800106550084e-10
1.435530085959885405e+00 3.029845050502868747e-10
1.458452722063037221e+00 3.016409562829193579e-10
1.481375358166189038e+00 2.994365544009746806e-10
1.504297994269340855e+00 2.964146408465020561e-10
1.527220630372492671e+00 2.926279096651343827e-10
1.550143266475644710e+00 2.881365240120950184e-10
1.573065902578796527e+00 2.830062637056159347e-10
1.595988538681948565e+00 2.773067425545528329e-10
1.618911174785100382e+00 2.711097276197756323e-10
1.641833810888252199e+00 2.644875869812456108e-10
1.664756446991404015e+00 2.575118876848318069e-10
1.687679083094555832e+00 2.502521609846349024e-10
1.710601719197707649e+00 2.427748474637758633e-10
1.733524355300859465e+00 2.351424299016506507e-10
1.756446991404011282e+00 2.274127567933744204e-10
1.779369627507163321e+00 2.196385542960983307e-10
1.802292263610315137e+00 2.118671192722199296e-10
1.825214899713467176e+00 2.041401812875066810e-10
1.848137535816618993e+00 1.964939171881235323e-10
1.871060171919770809e+00 1.889590984801923775e-10
1.893982808022922626e+00 1.815613493575247938e-10
1.916905444126074443e+00 1.743214919669070440e-10
1.939828080229226259e+00 1.672559553694127842e-10
1.962750716332378076e+00 1.603772255659004816e-10
1.985673352435529893e+00 1.536943157495077368e-10
2.008595988538681709e+00 1.472132384243578938e-10
2.031518624641833526e+00 1.409374639618867387e-10
2.054441260744985343e+00 1.348683533284762593e-10
2.077363896848137603e+00 1.290055559038033885e-10
2.100286532951289420e+00 1.233473663442781906e-10
2.123209169054441237e+00 1.178910371960575640e-10
2.146131805157593053e+00 1.126330463358687943e-10
2.169054441260744870e+00 1.075693202645405201e-10
2.191977077363897131e+00 1.026954157829948612e-10
2.214899713467048947e+00 9.800666365809856109e-11
2.237822349570200764e+00 9.349827857269787811e-11
2.260744985673352581e+00 8.916544000150039433e-11
2.283667621776504397e+00 8.500334872134450526e-11
2.306590257879656214e+00 8.100726351252127880e-11
2.329512893982808031e+00 7.717252229709073040e-11
2.352435530085959847e+00 7.349455154550910254e-11
2.375358166189111664e+00 6.996886731196693236e-11
2.398280802292263481e+00 6.659107077022820321e-11
2.421203438395415297e+00 6.335684064385652801e-11
2.444126074498567114e+00 6.026192447510968617e-11
2.467048710601718930e+00 5.730213026251529321e-11
2.489971346704870747e+00 5.447331961614485681e-11
2.512893982808022564e+00 5.177140322362924293e-11
2.535816618911174825e+00 4.919233907880961975e-11
2.558739255014326641e+00 4.673213359137763769e-11
2.581661891117478458e+00 4.438684537019410668e-11
2.604584527220630275e+00 4.215259116571794633e-11
2.627507163323782091e+00 4.002555318889246511e-11
2.650429799426934352e+00 3.800198682274836621e-11
2.673352435530086169e+00 3.607822763784795031e-11
2.696275071633237985e+00 3.425069663636782232e-11
2.719197707736389802e+00 3.251590279207037646e-11
2.742120343839541619e+00 3.087044221721664882e-11
2.765042979942693435e+00 2.931099364681673453e-11
2.787965616045845252e+00 2.783431034415484873e-11
2.810888252148997069e+00 2.643720894851567366e-11
2.833810888252148885e+00 2.511655615432065551e-11
2.856733524355300702e+00 2.386925438507045948e-11
2.879656160458452518e+00 2.269222777368969306e-11
2.902578796561604335e+00 2.158240976877258105e-11
2.925501432664756152e+00 2.053673355805819714e-11
2.948424068767907968e+00 1.955212625695413737e-11
2.971346704871059785e+00 1.862550748401125069e-11
2.994269340974212046e+00 1.775379257649541925e-11
3.017191977077363862e+00 1.693390032803165749e-11
3.040114613180515679e+00 1.616276479294496891e-11
3.063037249283667496e+00 1.543735042672456020e-11
3.085959885386819312e+00 1.475466963734852454e-11
3.108882521489971129e+00 1.411180171596078584e-11
3.131805157593122946e+00 1.350591209600585759e-11
3.154727793696275207e+00 1.293427094816781041e-11
3.177650429799427023e+00 1.239427023979767065e-11
3.200573065902578840e+00 1.188343855452678919e-11
3.223495702005730656e+00 1.139945316223464109e-11
3.246418338108882473e+00 1.094014903402208583e-11
3.269340974212034290e+00 1.050352469563958036e-11
3.292263610315186106e+00 1.008774499247347194e-11
3.315186246418337923e+00 9.691140988690559285e-12
3.338108882521489740e+00 9.312207334109331374e-12
3.361031518624641556e+00 8.949597499444448783e-12
3.383954154727793817e+00 8.602117301984414933e-12
3.406876790830945634e+00 8.268717121961399969e-12
3.429799426934097450e+00 7.948483151911624771e-12
3.452722063037249267e+00 7.640627938646063534e-12
3.475644699140401084e+00 7.344480384812713993e-12
3.498567335243552900e+00 7.059475290593835459e-12
3.521489971346704717e+00 6.785142450898997203e-12
3.544412607449856534e+00 6.521095290851533750e-12
3.567335243553008350e+00 6.267019028010945033e-12
3.590257879656160167e+00 6.022658392366519209e-12
3.613180515759312428e+00 5.787805006783232912e-12
3.636103151862464244e+00 5.562284618215263725e-12
3.659025787965616061e+00 5.345944457788703853e-12
3.681948424068767878e+00 5.138641079993638687e-12
3.704871060171919694e+00 4.940229074600145531e-12
3.727793696275071511e+00 4.750551051087500560e-12
3.750716332378223328e+00 4.569429261633412619e-12
3.773638968481375144e+00 4.396659158053505854e-12
3.796561604584526961e+00 4.232005078328057234e-12
3.819484240687678778e+00 4.075198140610419205e-12
3.842406876790831038e+00 3.925936299495939657e-12
3.865329512893982855e+00 3.783886403308063985e-12
3.888252148997134672e+00 3.648687993348576407e-12
3.911174785100286488e+00 3.519958515749445980e-12
3.934097421203438305e+00 3.397299581575753292e-12
3.957020057306590122e+00 3.280303918637308059e-12
3.979942693409741938e+00 3.168562717636794362e-12
4.002865329512893311e+00 3.061673196329098506e-12
4.025787965616045128e+00 2.959246399716385172e-12
4.048710601719197832e+00 2.860915530002568759e-12
4.071633237822349649e+00 2.766345453540875071e-12
4.094555873925501466e+00 2.675244437077059034e-12
4.117478510028653282e+00 2.587379562492590491e-12
4.140401146131805099e+00 2.502597559754130402e-12
4.163323782234956916e+00 2.420852851746161470e-12
4.186246418338108732e+00 2.342244282188939834e-12
4.209169054441260549e+00 2.267061185994432850e-12
4.232091690544412366e+00 2.195838118544565561e-12
4.255014326647564182e+00 2.129415755470644606e-12
4.277936962750716887e+00 2.069003407039835828e-12
4.300859598853868704e+00 2.016236580024674645e-12
4.323782234957020520e+00 1.973221457119784635e-12
4.346704871060172337e+00 1.942557440769617860e-12
4.369627507163324154e+00 1.927329328107662674e-12
4.392550143266475970e+00 1.931062384320546147e-12
4.415472779369627787e+00 1.957636486761121846e-12
4.438395415472779604e+00 2.011159326026920597e-12
4.461318051575931420e+00 2.095802899911178325e-12
4.484240687679083237e+00 2.215611650713058194e-12
4.507163323782235054e+00 2.374294007421892849e-12
4.530085959885386870e+00 2.575011334671835877e-12
4.553008595988538687e+00 2.820179071117488931e-12
4.575931232091690504e+00 3.111294090352013436e-12
4.598853868194842320e+00 3.448800183646258133e-12
4.621776504297994137e+00 3.832000368725060424e-12
4.644699140401145954e+00 4.259020906979399705e-12
4.667621776504297770e+00 4.726827932227873070e-12
4.690544412607449587e+00 5.231293889597849829e-12
4.713467048710601404e+00 5.767307893282286904e-12
4.736389684813753220e+00 6.328921853017593966e-12
4.759312320916905037e+00 6.909522876531033230e-12
4.782234957020056854e+00 7.502021997537579363e-12
4.805157593123208670e+00 8.099049586088623960e-12
4.828080229226360487e+00 8.693148696059626225e-12
4.851002865329512304e+00 9.276958899024826613e-12
4.873925501432664120e+00 9.843384658412896023e-12
4.896848137535815937e+00 1.038574385392619938e-11
4.919770773638967754e+00 1.089789355291035073e-11
4.942693409742119570e+00 1.137433146205383067e-11
4.965616045845272275e+00 1.181027263535825353e-11
4.988538681948424092e+00 1.220170194788743960e-11
5.011461318051575908e+00 1.254540357520937190e-11
5.034383954154727725e+00 1.283896926402262317e-11
5.057306590257879542e+00 1.308078756431608660e-11
5.080229226361031358e+00 1.327001644260424722e-11
5.103151862464183175e+00 1.340654183241922221e-11
5.126074498567334992e+00 1.349092472217550126e-11
5.148997134670486808e+00 1.352433934818990399e-11
5.171919770773638625e+00 1.350850496558108590e-11
5.194842406876790442e+00 1.344561352343640217e-11
5.217765042979942258e+00 1.333825538316019926e-11
5.240687679083094075e+00 1.318934499974589246e-11
5.263610315186245892e+00 1.300204824393458680e-11
5.286532951289397708e+00 1.277971278768433957e-11
5.309455587392550413e+00 1.252580271459502812e-11
5.332378223495702230e+00 1.224383825889353440e-11
5.355300859598854046e+00 1.193734132846863211e-11
5.378223495702005863e+00 1.160978723540123394e-11
5.401146131805157680e+00 1.126456284638841216e-11
5.424068767908309496e+00 1.090493117900527955e-11
5.446991404011461313e+00 1.053400231014045869e-11
5.469914040114613130e+00 1.015471033114911147e-11
5.492836676217764946e+00 9.769795980114843783e-12
5.515759312320916763e+00 9.381794503945873994e-12
5.538681948424068580e+00 8.993028249928921740e-12
5.561604584527220396e+00 8.605603455344274974e-12
5.584527220630372213e+00 8.221410691967126492e-12
5.607449856733524030e+00 7.842128426731410724e-12
5.630372492836675846e+00 7.469229177482778973e-12
5.653295128939827663e+00 7.103987770678522352e-12
5.676217765042979480e+00 6.747491243390756096e-12
5.699140401146131296e+00 6.400649972593158651e-12
5.722063037249283113e+00 6.064209658330454227e-12
5.744985673352435818e+00 5.738763832180186071e-12
5.767908309455587634e+00 5.424766606941406646e-12
5.790830945558739451e+00 5.122545426558046385e-12
5.813753581661891268e+00 4.832313616027335725e-12
5.836676217765043084e+00 4.554182568828781639e-12
5.859598853868194901e+00 4.288173443834837370e-12
5.882521489971346718e+00 4.034228274510414980e-12
5.905444126074498534e+00 3.792220420408799052e-12
5.928366762177650351e+00 3.561964314578740792e-12
5.951289398280802168e+00 3.343224480655421453e-12
5.974212034383953984e+00 3.135723810325942028e-12
5.997134670487105801e+00 2.939151105791583294e-12
6.020057306590257618e+00 2.753167903073690540e-12
6.042979942693409434e+00 2.577414600819090813e-12
6.065902578796561251e+00 2.411515925945516188e-12
6.088825214899713067e+00 2.255085772310516570e-12
6.111747851002864884e+00 2.107731451856872624e-12
6.134670487106016701e+00 1.969057399632520778e-12
6.157593123209168517e+00 1.838668374930895432e-12
6.180515759312320334e+00 1.716172200752897536e-12
6.203438395415473039e+00 1.601182083035564711e-12
6.226361031518624856e+00 1.493318549783620491e-12
6.249283667621776672e+00 1.392211048515174432e-12
6.272206303724928489e+00 1.297499238408924312e-12
6.295128939828080306e+00 1.208834011315040451e-12
6.318051575931232122e+00 1.125878273447329139e-12
6.340974212034383939e+00 1.048307517176587551e-12
6.363896848137535756e+00 9.758102099477000711e-13
6.386819484240687572e+00 9.080880249880926097e-13
6.409742120343839389e+00 8.448559361947967140e-13
6.432664756446991206e+00 7.858421974055307114e-13
6.455587392550143022e+00 7.307882241927920272e-13
6.478510028653294839e+00 6.794483943801574185e-13
6.501432664756446655e+00 6.315897816731788287e-13
6.524355300859598472e+00 5.869918351261125651e-13
6.547277936962750289e+00 5.454460156297643517e-13
6.570200573065902105e+00 5.067553992023002415e-13
6.593123209169053922e+00 4.707342555893927700e-13
6.616045845272205739e+00 4.372076095268045508e-13
6.638968481375357555e+00 4.060107909807465371e-13
6.661891117478510260e+00 3.769889797518559631e-13
6.684813753581662077e+00 3.499967489998679222e-13
6.707736389684813894e+00 3.248976115103373600e-13
6.730659025787965710e+00 3.015635718745938530e-13
6.753581661891117527e+00 2.798746871819728115e-13
6.776504297994269344e+00 2.597186383222749823e-13
6.799426934097421160e+00 2.409903135595111752e-13
6.822349570200572977e+00 2.235914056589517485e-13
6.845272206303724793e+00 2.074300235223509332e-13
6.868194842406876610e+00 1.924203190054135310e-13
6.891117478510028427e+00 1.784821293520234128e-13
6.914040114613180243e+00 1.655406354767627798e-13
6.936962750716332060e+00 1.535260361565533820e-13
6.959885386819483877e+00 1.423732380499563153e-13
6.982808022922635693e+00 1.320215613452701478e-13
7.005730659025787510e+00 1.224144607428957198e-13
7.028653295128939327e+00 1.134992614006605444e-13
7.051575931232091143e+00 1.052269094103698523e-13
7.074498567335242960e+00 9.755173632751562426e-14
7.097421203438395665e+00 9.043123724182350314e-14
7.120343839541547482e+00 8.382586185236922045e-14
7.143266475644699298e+00 7.769881799577776185e-14
7.166189111747851115e+00 7.201588706817091807e-14
7.189111747851002931e+00 6.674525077981142387e-14
7.212034383954154748e+00 6.185732868478152805e-14
7.234957020057306565e+00 5.732462593558943366e-14
7.257879656160458381e+00 5.312159072353395418e-14
7.280802292263610198e+00 4.922448087928106230e-14
7.303724928366762015e+00 4.561123912382837210e-14
7.326647564469913831e+00 4.226137647734458008e-14
7.349570200573065648e+00 3.915586335184065447e-14
7.372492836676217465e+00 3.627702787288899610e-14
7.395415472779369281e+00 3.360846099535019592e-14
7.418338108882521098e+00 3.113492799803273711e-14
7.441260744985672915e+00 2.884228596218685365e-14
7.464183381088824731e+00 2.671740685854147051e-14
7.487106017191976548e+00 2.474810588709021130e-14
7.510028653295128365e+00 2.292307473290278281e-14
7.532951289398280181e+00 2.123181941979171119e-14
7.555873925501432886e+00 1.966460246163031323e-14
7.578796561604584703e+00 1.821238902844559325e-14
7.601719197707736519e+00 1.686679686105917596e-14
7.624641833810888336e+00 1.562004968400195244e-14
7.647564469914040153e+00 1.446493388166181817e-14
7.670487106017191969e+00 1.339475821714245104e-14
7.693409742120343786e+00 1.240331638711073424e-14
7.716332378223495603e+00 1.148485221900312993e-14
7.739255014326647419e+00 1.063402732935855062e-14
7.762177650429799236e+00 9.845891073765086510e-15
7.785100286532951053e+00 9.115852629969862682e-15
7.808022922636102869e+00 8.439655066127859345e-15
7.830945558739254686e+00 7.813351255980590803e-15
7.853868194842406503e+00 7.233281511983955587e-15
7.876790830945558319e+00 6.696052816072543865e-15
7.899713467048710136e+00 6.198519535880567245e-15
7.922636103151861953e+00 5.737765521864230734e-15
7.945558739255013769e+00 5.311087487911862844e-15
7.968481375358165586e+00 4.915979584712592667e-15
7.991404011461317403e+00 4.550119081406199031e-15
8.014326647564470107e+00 4.211353076880397018e-15
8.037249283667621924e+00 3.897686167540629428e-15
8.060171919770773741e+00 3.607269003473642622e-15
8.083094555873925557e+00 3.338387669682277025e-15
8.106017191977077374e+00 3.089453833504191771e-15
8.128939828080229191e+00 2.858995603463078189e-15
8.151862464183381007e+00 2.645649048654862074e-15
8.174785100286532824e+00 2.448150331361953456e-15
8.197707736389684641e+00 2.265328408932386379e-15
8.220630372492836457e+00 2.096098264073868026e-15
8.243553008595988274e+00 1.939454625610286014e-15
8.266475644699140091e+00 1.794466144444415966e-15
8.289398280802291907e+00 1.660269991978836340e-15
8.312320916905443724e+00 1.536066850579884262e-15
8.335243553008595541e+00 1.421116267838869587e-15
8.358166189111747357e+00 1.314732348401617861e-15
8.381088825214899174e+00 1.216279759012283983e-15
8.404011461318050991e+00 1.125170024159909970e-15
8.426934097421202807e+00 1.040858091335548282e-15
8.449856733524356400e+00 9.628391464124158486e-16
8.472779369627506441e+00 8.906456610595421355e-16
8.495702005730660034e+00 8.238446553978219056e-16
8.518624641833810074e+00 7.620351603140552266e-16
8.541547277936963667e+00 7.048458649683575664e-16
8.564469914040113707e+00 6.519329360714985156e-16
8.587392550143267300e+00 6.029779964743487423e-16
8.610315186246417340e+00 5.576862515094660947e-16
8.633237822349570934e+00 5.157847523574137895e-16
8.656160458452720974e+00 4.770207864844246762e-16
8.679083094555874567e+00 4.411603859156875851e-16
8.702005730659024607e+00 4.079869447756460426e-16
8.724928366762178200e+00 3.772999381451852237e-16
8.747851002865328240e+00 3.489137348604452320e-16
8.770773638968481833e+00 3.226564974109016027e-16
8.793696275071631874e+00 2.983691625896368917e-16
8.816618911174785467e+00 2.759044970078121146e-16
8.839541547277935507e+00 2.551262220119848640e-16
8.862464183381089100e+00 2.359082029383578760e-16
8.885386819484239140e+00 2.181336980054869628e-16
8.908309455587392733e+00 2.016946624875359270e-16
8.931232091690544550e+00 1.864911041265846663e-16
8.954154727793696367e+00 1.724304860357541391e-16
8.977077363896848183e+00 1.594271736173212627e-16
9.000000000000000000e+00 1.474019222725371230e-16
