# log10(T) rate(cm^3/s)
# Total Recomb Rates
1.000000000000000000e+00 2.746126723097288651e-09
1.022922636103151817e+00 2.671213427986595756e-09
1.045845272206303633e+00 2.598272141592894657e-09
1.068767908309455672e+00 2.527251818677130346e-09
1.091690544412607489e+00 2.458102743067034157e-09
1.114613180515759305e+00 2.390776492793037136e-09
1.137535816618911122e+00 2.325225906125146476e-09
1.160458452722062939e+00 2.261405048487455194e-09
1.183381088825214977e+00 2.199269180227757630e-09
1.206303724928366794e+00 2.138774725220199103e-09
1.229226361031518611e+00 2.079879240279622599e-09
1.252148997134670427e+00 2.022541385366765467e-09
1.275071633237822244e+00 1.966720894564094805e-09
1.297994269340974283e+00 1.912378547802595034e-09
1.320916905444126099e+00 1.859476143320378918e-09
1.343839541547277916e+00 1.807976470834488327e-09
1.366762177650429733e+00 1.757843285407831737e-09
1.389684813753581771e+00 1.709041281993632909e-09
1.412607449856733588e+00 1.661536070640300765e-09
1.435530085959885405e+00 1.615294152340075333e-09
1.458452722063037221e+00 1.570282895505286847e-09
1.481375358166189038e+00 1.526470513056489853e-09
1.504297994269340855e+00 1.483826040107187276e-09
1.527220630372492671e+00 1.442319312230263461e-09
1.550143266475644710e+00 1.401920944291665208e-09
1.573065902578796527e+00 1.362602309837261708e-09
1.595988538681948565e+00 1.324335521019190841e-09
1.618911174785100382e+00 1.287093409048383961e-09
1.641833810888252199e+00 1.250849505160301445e-09
1.664756446991404015e+00 1.215578022081283743e-09
1.687679083094555832e+00 1.181253835983228909e-09
1.710601719197707649e+00 1.147852468914653385e-09
1.733524355300859465e+00 1.115350071696490135e-09
1.756446991404011282e+00 1.083723407271300057e-09
1.779369627507163321e+00 1.052949834494829589e-09
1.802292263610315137e+00 1.023007292359164696e-09
1.825214899713467176e+00 9.938742846369621780e-10
1.848137535816618993e+00 9.655298649365397299e-10
1.871060171919770809e+00 9.379536221578082115e-10
1.893982808022922626e+00 9.111256663393078369e-10
1.916905444126074443e+00 8.850266148868171969e-10
1.939828080229226259e+00 8.596375791742275745e-10
1.962750716332378076e+00 8.349401515075910119e-10
1.985673352435529893e+00 8.109163924434474560e-10
2.008595988538681709e+00 7.875488184527322472e-10
2.031518624641833526e+00 7.648203899217548475e-10
2.054441260744985343e+00 7.427144994819104158e-10
2.077363896848137603e+00 7.212149606599647112e-10
2.100286532951289420e+00 7.003059968409167983e-10
2.123209169054441237e+00 6.799722305355954013e-10
2.146131805157593053e+00 6.601986729453076016e-10
2.169054441260744870e+00 6.409707138159970295e-10
2.191977077363897131e+00 6.222741115745163445e-10
2.214899713467048947e+00 6.040949837397499149e-10
2.237822349570200764e+00 5.864197976014618758e-10
2.260744985673352581e+00 5.692353611598693466e-10
2.283667621776504397e+00 5.525288143190671411e-10
2.306590257879656214e+00 5.362876203275522131e-10
2.329512893982808031e+00 5.204995574592162272e-10
2.352435530085959847e+00 5.051527109282936542e-10
2.375358166189111664e+00 4.902354650318608430e-10
2.398280802292263481e+00 4.757364955136082840e-10
2.421203438395415297e+00 4.616447621427045441e-10
2.444126074498567114e+00 4.479495015016960318e-10
2.467048710601718930e+00 4.346402199774874610e-10
2.489971346704870747e+00 4.217066869495631183e-10
2.512893982808022564e+00 4.091389281697178131e-10
2.535816618911174825e+00 3.969272193276739739e-10
2.558739255014326641e+00 3.850620797970777822e-10
2.581661891117478458e+00 3.735342665564641684e-10
2.604584527220630275e+00 3.623347682799116543e-10
2.627507163323782091e+00 3.514547995921993801e-10
2.650429799426934352e+00 3.408857954834009194e-10
2.673352435530086169e+00 3.306194058779630691e-10
2.696275071633237985e+00 3.206474903534240426e-10
2.719197707736389802e+00 3.109621130040470875e-10
2.742120343839541619e+00 3.015555374447546904e-10
2.765042979942693435e+00 2.924202219508661911e-10
2.787965616045845252e+00 2.835488147292584736e-10
2.810888252148997069e+00 2.749341493166813784e-10
2.833810888252148885e+00 2.665692401010817980e-10
2.856733524355300702e+00 2.584472779619021958e-10
2.879656160458452518e+00 2.505616260254394295e-10
2.902578796561604335e+00 2.429058155314652615e-10
2.925501432664756152e+00 2.354735418074254305e-10
2.948424068767907968e+00 2.282586603466533493e-10
2.971346704871059785e+00 2.212551829871469171e-10
2.994269340974212046e+00 2.144572741875733806e-10
3.017191977077363862e+00 2.078592473972813596e-10
3.040114613180515679e+00 2.014555615172104054e-10
3.063037249283667496e+00 1.952408174487011659e-10
3.085959885386819312e+00 1.892097547273196066e-10
3.108882521489971129e+00 1.833572482389149529e-10
3.131805157593122946e+00 1.776783050152408524e-10
3.154727793696275207e+00 1.721680611065688808e-10
3.177650429799427023e+00 1.668217785288328549e-10
3.200573065902578840e+00 1.616348422829342127e-10
3.223495702005730656e+00 1.566027574439438436e-10
3.246418338108882473e+00 1.517211463180266177e-10
3.269340974212034290e+00 1.469857456650085905e-10
3.292263610315186106e+00 1.423924039845969701e-10
3.315186246418337923e+00 1.379370788643486783e-10
3.338108882521489740e+00 1.336158343875701886e-10
3.361031518624641556e+00 1.294248385994083062e-10
3.383954154727793817e+00 1.253603610294747609e-10
3.406876790830945634e+00 1.214187702694174883e-10
3.429799426934097450e+00 1.175965316039280877e-10
3.452722063037249267e+00 1.138902046937404390e-10
3.475644699140401084e+00 1.102964413092450944e-10
3.498567335243552900e+00 1.068119831134031451e-10
3.521489971346704717e+00 1.034336594927068078e-10
3.544412607449856534e+00 1.001583854349890790e-10
3.567335243553008350e+00 9.698315945293886669e-11
3.590257879656160167e+00 9.390506155223176178e-11
3.613180515759312428e+00 9.092125124323098522e-11
3.636103151862464244e+00 8.802896559526341130e-11
3.659025787965616061e+00 8.522551733251502857e-11
3.681948424068767878e+00 8.250829297063290209e-11
3.704871060171919694e+00 7.987475099315837672e-11
3.727793696275071511e+00 7.732242006695150645e-11
3.750716332378223328e+00 7.484889729580018303e-11
3.773638968481375144e+00 7.245184651143978721e-11
3.796561604584526961e+00 7.012899660123635412e-11
3.819484240687678778e+00 6.787813987181491089e-11
3.842406876790831038e+00 6.569713044793915003e-11
3.865329512893982855e+00 6.358388270597287473e-11
3.888252148997134672e+00 6.153636974127284519e-11
3.911174785100286488e+00 5.955262186888669525e-11
3.934097421203438305e+00 5.763072515694422564e-11
3.957020057306590122e+00 5.576881999215025860e-11
3.979942693409741938e+00 5.396509967680142949e-11
4.002865329512893311e+00 5.221780905676518901e-11
4.025787965616045128e+00 5.052524317987098583e-11
4.048710601719197832e+00 4.888574598417859912e-11
4.071633237822349649e+00 4.729770901559709452e-11
4.094555873925501466e+00 4.575957017434020105e-11
4.117478510028653282e+00 4.426981248971380652e-11
4.140401146131805099e+00 4.282696292273905647e-11
4.163323782234956916e+00 4.142959119612325252e-11
4.186246418338108732e+00 4.007630865109928965e-11
4.209169054441260549e+00 3.876576713066022636e-11
4.232091690544412366e+00 3.749665788872292341e-11
4.255014326647564182e+00 3.626771052476107754e-11
4.277936962750716887e+00 3.507769194345290792e-11
4.300859598853868704e+00 3.392540533889566722e-11
4.323782234957020520e+00 3.280968920294243902e-11
4.346704871060172337e+00 3.172941635722370107e-11
4.369627507163324154e+00 3.068349300841919722e-11
4.392550143266475970e+00 2.967085782635117309e-11
4.415472779369627787e+00 2.869048104447384679e-11
4.438395415472779604e+00 2.774136358233893591e-11
4.461318051575931420e+00 2.682253618962036759e-11
4.484240687679083237e+00 2.593305861128637476e-11
4.507163323782235054e+00 2.507201877351045141e-11
4.530085959885386870e+00 2.423853198991723466e-11
4.553008595988538687e+00 2.343174018776298061e-11
4.575931232091690504e+00 2.265081115365488981e-11
4.598853868194842320e+00 2.189493779841678150e-11
4.621776504297994137e+00 2.116333744071364748e-11
4.644699140401145954e+00 2.045525110905078886e-11
4.667621776504297770e+00 1.976994286176812823e-11
4.690544412607449587e+00 1.910669912465398573e-11
4.713467048710601404e+00 1.846482804580711869e-11
4.736389684813753220e+00 1.784365886738002157e-11
4.759312320916905037e+00 1.724254131384078354e-11
4.782234957020056854e+00 1.666084499639546393e-11
4.805157593123208670e+00 1.609795883321697464e-11
4.828080229226360487e+00 1.555329048513149649e-11
4.851002865329512304e+00 1.502626580641766296e-11
4.873925501432664120e+00 1.451632831037857580e-11
4.896848137535815937e+00 1.402293864935130668e-11
4.919770773638967754e+00 1.354557410882344386e-11
4.942693409742119570e+00 1.308372811533088807e-11
4.965616045845272275e+00 1.263690975781595769e-11
4.988538681948424092e+00 1.220464332212996266e-11
5.011461318051575908e+00 1.178646783836878756e-11
5.034383954154727725e+00 1.138193664073583760e-11
5.057306590257879542e+00 1.099061693963076084e-11
5.080229226361031358e+00 1.061208940566799052e-11
5.103151862464183175e+00 1.024594776533392552e-11
5.126074498567334992e+00 9.891798407996652454e-12
5.148997134670486808e+00 9.549260003987168521e-12
5.171919770773638625e+00 9.217963133476062605e-12
5.194842406876790442e+00 8.897549925874762628e-12
5.217765042979942258e+00 8.587673709495480109e-12
5.240687679083094075e+00 8.287998671208897429e-12
5.263610315186245892e+00 7.998199525843940831e-12
5.286532951289397708e+00 7.717961195078714239e-12
5.309455587392550413e+00 7.446978495576869559e-12
5.332378223495702230e+00 7.184955836128630402e-12
5.355300859598854046e+00 6.931606923560439191e-12
5.378223495702005863e+00 6.686654477182521848e-12
5.401146131805157680e+00 6.449829951548071510e-12
5.424068767908309496e+00 6.220873267303037346e-12
5.446991404011461313e+00 5.999532549909908643e-12
5.469914040114613130e+00 5.785563876034062253e-12
5.492836676217764946e+00 5.578731027385578572e-12
5.515759312320916763e+00 5.378805251814413669e-12
5.538681948424068580e+00 5.185565031461215244e-12
5.561604584527220396e+00 4.998795857770801340e-12
5.584527220630372213e+00 4.818290013179744218e-12
5.607449856733524030e+00 4.643846359293995538e-12
5.630372492836675846e+00 4.475270131376900380e-12
5.653295128939827663e+00 4.312372738972293538e-12
5.676217765042979480e+00 4.154971572491640745e-12
5.699140401146131296e+00 4.002889815598436431e-12
5.722063037249283113e+00 3.855956263227216889e-12
5.744985673352435818e+00 3.714005145078618134e-12
5.767908309455587634e+00 3.576875954436047736e-12
5.790830945558739451e+00 3.444413282153312670e-12
5.813753581661891268e+00 3.316466655666677111e-12
5.836676217765043084e+00 3.192890382888478143e-12
5.859598853868194901e+00 3.073543400843264380e-12
5.882521489971346718e+00 2.958289128911133906e-12
5.905444126074498534e+00 2.846995326546539780e-12
5.928366762177650351e+00 2.739533955344400608e-12
5.951289398280802168e+00 2.635781045328873623e-12
5.974212034383953984e+00 2.535616565343515436e-12
5.997134670487105801e+00 2.438924297424949928e-12
6.020057306590257618e+00 2.345591715045416179e-12
6.042979942693409434e+00 2.255509865112790794e-12
6.065902578796561251e+00 2.168573253619810797e-12
6.088825214899713067e+00 2.084679734837291279e-12
6.111747851002864884e+00 2.003730403949131713e-12
6.134670487106016701e+00 1.925629493029820991e-12
6.157593123209168517e+00 1.850284270268018907e-12
6.180515759312320334e+00 1.777604942342562734e-12
6.203438395415473039e+00 1.707504559859956496e-12
6.226361031518624856e+00 1.639898925765074712e-12
6.249283667621776672e+00 1.574706506639295374e-12
6.272206303724928489e+00 1.511848346802912724e-12
6.295128939828080306e+00 1.451247985140965661e-12
6.318051575931232122e+00 1.392831374574057540e-12
6.340974212034383939e+00 1.336526804098018283e-12
6.363896848137535756e+00 1.282264823318440557e-12
6.386819484240687572e+00 1.229978169408307862e-12
6.409742120343839389e+00 1.179601696418970454e-12
6.432664756446991206e+00 1.131072306876757804e-12
6.455587392550143022e+00 1.084328885599432635e-12
6.478510028653294839e+00 1.039312235668561762e-12
6.501432664756446655e+00 9.959650164956820092e-13
6.524355300859598472e+00 9.542316839218659037e-13
6.547277936962750289e+00 9.140584322919522707e-13
6.570200573065902105e+00 8.753931384463097291e-13
6.593123209169053922e+00 8.381853075745283100e-13
6.616045845272205739e+00 8.023860208769088507e-13
6.638968481375357555e+00 7.679478849810232582e-13
6.661891117478510260e+00 7.348249830619519968e-13
6.684813753581662077e+00 7.029728276161272107e-13
6.707736389684813894e+00 6.723483148398756396e-13
6.730659025787965710e+00 6.429096805649977718e-13
6.753581661891117527e+00 6.146164577047842471e-13
6.776504297994269344e+00 5.874294351649554945e-13
6.799426934097421160e+00 5.613106181750332509e-13
6.822349570200572977e+00 5.362231899966073225e-13
6.845272206303724793e+00 5.121314749658949587e-13
6.868194842406876610e+00 4.890009028288728271e-13
6.891117478510028427e+00 4.667979743280991542e-13
6.914040114613180243e+00 4.454902280011608371e-13
6.936962750716332060e+00 4.250462081514472255e-13
6.959885386819483877e+00 4.054354339527071084e-13
6.982808022922635693e+00 3.866283696495575095e-13
7.005730659025787510e+00 3.685963958168161804e-13
7.028653295128939327e+00 3.513117816412043400e-13
7.051575931232091143e+00 3.347476581896294060e-13
7.074498567335242960e+00 3.188779926289056705e-13
7.097421203438395665e+00 3.036775633624108437e-13
7.120343839541547482e+00 2.891219360498143965e-13
7.143266475644699298e+00 2.751874404766317968e-13
7.166189111747851115e+00 2.618511482410114815e-13
7.189111747851002931e+00 2.490908512257736636e-13
7.212034383954154748e+00 2.368850408243752947e-13
7.234957020057306565e+00 2.252128878901187105e-13
7.257879656160458381e+00 2.140542233785822093e-13
7.280802292263610198e+00 2.033895196539233537e-13
7.303724928366762015e+00 1.931998724303953130e-13
7.326647564469913831e+00 1.834669833211174248e-13
7.349570200573065648e+00 1.741731429668655952e-13
7.372492836676217465e+00 1.653012147183859990e-13
7.395415472779369281e+00 1.568346188464957527e-13
7.418338108882521098e+00 1.487573172550126656e-13
7.441260744985672915e+00 1.410537986723520818e-13
7.464183381088824731e+00 1.337090642984471181e-13
7.487106017191976548e+00 1.267086138844818918e-13
7.510028653295128365e+00 1.200384322237769338e-13
7.532951289398280181e+00 1.136849760330366127e-13
7.555873925501432886e+00 1.076351612040422334e-13
7.578796561604584703e+00 1.018763504067740350e-13
7.601719197707736519e+00 9.639634102583738514e-14
7.624641833810888336e+00 9.118335341298709110e-14
7.647564469914040153e+00 8.622601943944666077e-14
7.670487106017191969e+00 8.151337133263938505e-14
7.693409742120343786e+00 7.703483078285624972e-14
7.716332378223495603e+00 7.278019830629565189e-14
7.739255014326647419e+00 6.873964285180730436e-14
7.762177650429799236e+00 6.490369163956071594e-14
7.785100286532951053e+00 6.126322022073303473e-14
7.808022922636102869e+00 5.780944274816582541e-14
7.830945558739254686e+00 5.453390244877622279e-14
7.853868194842406503e+00 5.142846228931837277e-14
7.876790830945558319e+00 4.848529582787667039e-14
7.899713467048710136e+00 4.569687824422761037e-14
7.922636103151861953e+00 4.305597754293052677e-14
7.945558739255013769e+00 4.055564592369824398e-14
7.968481375358165586e+00 3.818921131425184444e-14
7.991404011461317403e+00 3.595026906148098191e-14
8.014326647564470107e+00 3.383267377730763754e-14
8.037249283667621924e+00 3.183053133618951538e-14
8.060171919770773741e+00 2.993819102169322728e-14
8.083094555873925557e+00 2.815023782002447683e-14
8.106017191977077374e+00 2.646148485881247968e-14
8.128939828080229191e+00 2.486696598981755322e-14
8.151862464183381007e+00 2.336192851455964683e-14
8.174785100286532824e+00 2.194182605215327171e-14
8.197707736389684641e+00 2.060231154888251602e-14
8.220630372492836457e+00 1.933923042925821280e-14
8.243553008595988274e+00 1.814861388847094358e-14
8.266475644699140091e+00 1.702667232628799195e-14
8.289398280802291907e+00 1.596978892254327544e-14
8.312320916905443724e+00 1.497451335443681704e-14
8.335243553008595541e+00 1.403755565589785788e-14
8.358166189111747357e+00 1.315578021927442006e-14
8.381088825214899174e+00 1.232619993959473436e-14
8.404011461318050991e+00 1.154597050160461097e-14
8.426934097421202807e+00 1.081238480972181442e-14
8.449856733524356400e+00 1.012286756096591915e-14
8.472779369627506441e+00 9.474969960823451885e-15
8.495702005730660034e+00 8.866364581892353396e-15
8.518624641833810074e+00 8.294840365026763327e-15
8.541547277936963667e+00 7.758297762561409544e-15
8.564469914040113707e+00 7.254744023055984128e-15
8.587392550143267300e+00 6.782288616843154043e-15
8.610315186246417340e+00 6.339138801514542055e-15
8.633237822349570934e+00 5.923595326316556300e-15
8.656160458452720974e+00 5.534048274274955950e-15
8.679083094555874567e+00 5.168973040705748395e-15
8.702005730659024607e+00 4.826926446619835518e-15
8.724928366762178200e+00 4.506542985374197268e-15
8.747851002865328240e+00 4.206531200780468137e-15
8.770773638968481833e+00 3.925670194738497849e-15
8.793696275071631874e+00 3.662806262332940890e-15
8.816618911174785467e+00 3.416849652202613203e-15
8.839541547277935507e+00 3.186771449878399899e-15
8.862464183381089100e+00 2.971600581674675481e-15
8.885386819484239140e+00 2.770420936623010700e-15
8.908309455587392733e+00 2.582368603845216150e-15
8.931232091690544550e+00 2.406629222685544387e-15
8.954154727793696367e+00 2.242435442850170860e-15
8.977077363896848183e+00 2.089064491743838611e-15
9.000000000000000000e+00 1.945835846142511627e-15
