# log10(T) rate(cm^3/s)
# RecombRates
3.500000000000000000e+00 2.842559999999999956e-12
3.520000000000000018e+00 2.747010000000000025e-12
3.540000000000000036e+00 2.654410000000000198e-12
3.560000000000000053e+00 2.564660000000000100e-12
3.580000000000000071e+00 2.477680000000000000e-12
3.600000000000000089e+00 2.393420000000000115e-12
3.620000000000000107e+00 2.309889999999999965e-12
3.640000000000000124e+00 2.230870000000000167e-12
3.660000000000000142e+00 2.154299999999999817e-12
3.680000000000000160e+00 2.080110000000000110e-12
3.700000000000000178e+00 2.008239999999999933e-12
3.720000000000000195e+00 1.938609999999999956e-12
3.740000000000000213e+00 1.871150000000000160e-12
3.759999999999999787e+00 1.805859999999999941e-12
3.779999999999999805e+00 1.742589999999999949e-12
3.799999999999999822e+00 1.681319999999999948e-12
3.819999999999999840e+00 1.621979999999999921e-12
3.839999999999999858e+00 1.564529999999999999e-12
3.859999999999999876e+00 1.508910000000000080e-12
3.879999999999999893e+00 1.455069999999999979e-12
3.899999999999999911e+00 1.402979999999999945e-12
3.919999999999999929e+00 1.352479999999999908e-12
3.939999999999999947e+00 1.303640000000000088e-12
3.959999999999999964e+00 1.256390000000000062e-12
3.979999999999999982e+00 1.210680000000000047e-12
4.000000000000000000e+00 1.166440000000000026e-12
4.019999999999999574e+00 1.123640000000000047e-12
4.040000000000000036e+00 1.082249999999999958e-12
4.059999999999999609e+00 1.042230000000000094e-12
4.080000000000000071e+00 1.003560000000000017e-12
4.099999999999999645e+00 9.662319999999999566e-13
4.120000000000000107e+00 9.302509999999999708e-13
4.139999999999999680e+00 8.956350000000000505e-13
4.160000000000000142e+00 8.624299999999999915e-13
4.179999999999999716e+00 8.307149999999999596e-13
4.200000000000000178e+00 8.006099999999999581e-13
4.219999999999999751e+00 7.722999999999999505e-13
4.240000000000000213e+00 7.460519999999999799e-13
4.259999999999999787e+00 7.222389999999999884e-13
4.280000000000000249e+00 7.013900000000000032e-13
4.299999999999999822e+00 6.842290000000000322e-13
4.320000000000000284e+00 6.717449999999999816e-13
4.339999999999999858e+00 6.652600000000000350e-13
4.360000000000000320e+00 6.665220000000000149e-13
4.379999999999999893e+00 6.777960000000000131e-13
4.400000000000000355e+00 7.019620000000000133e-13
4.419999999999999929e+00 7.426050000000000452e-13
4.440000000000000391e+00 8.041020000000000204e-13
4.459999999999999964e+00 8.916580000000000160e-13
4.480000000000000426e+00 1.011340000000000010e-12
4.500000000000000000e+00 1.170079999999999998e-12
4.519999999999999574e+00 1.375329999999999957e-12
4.540000000000000036e+00 1.635470000000000098e-12
4.559999999999999609e+00 1.959040000000000102e-12
4.580000000000000071e+00 2.354759999999999955e-12
4.599999999999999645e+00 2.831129999999999873e-12
4.620000000000000107e+00 3.396110000000000157e-12
4.639999999999999680e+00 4.056769999999999889e-12
4.660000000000000142e+00 4.818970000000000013e-12
4.679999999999999716e+00 5.686889999999999813e-12
4.700000000000000178e+00 6.662839999999999910e-12
4.719999999999999751e+00 7.747019999999999437e-12
4.740000000000000213e+00 8.937380000000000031e-12
4.769999999999999574e+00 1.022929999999999964e-11
4.790000000000000036e+00 1.161600000000000059e-11
4.809999999999999609e+00 1.308810000000000034e-11
4.830000000000000071e+00 1.463460000000000148e-11
4.849999999999999645e+00 1.624210000000000084e-11
4.870000000000000107e+00 1.789579999999999974e-11
4.889999999999999680e+00 1.957969999999999986e-11
4.910000000000000142e+00 2.127709999999999948e-11
4.929999999999999716e+00 2.297059999999999988e-11
4.950000000000000178e+00 2.464289999999999873e-11
4.969999999999999751e+00 2.627689999999999924e-11
4.990000000000000213e+00 2.785630000000000117e-11
5.009999999999999787e+00 2.936569999999999714e-11
5.030000000000000249e+00 3.079119999999999909e-11
5.049999999999999822e+00 3.211990000000000170e-11
5.070000000000000284e+00 3.334109999999999977e-11
5.089999999999999858e+00 3.444540000000000184e-11
5.110000000000000320e+00 3.542570000000000000e-11
5.129999999999999893e+00 3.627639999999999919e-11
5.150000000000000355e+00 3.699390000000000214e-11
5.169999999999999929e+00 3.757619999999999815e-11
5.190000000000000391e+00 3.802330000000000016e-11
5.209999999999999964e+00 3.833629999999999690e-11
5.230000000000000426e+00 3.851800000000000208e-11
5.250000000000000000e+00 3.857259999999999742e-11
5.269999999999999574e+00 3.850490000000000085e-11
5.290000000000000036e+00 3.832109999999999834e-11
5.309999999999999609e+00 3.802779999999999999e-11
5.330000000000000071e+00 3.763259999999999860e-11
5.349999999999999645e+00 3.714300000000000036e-11
5.370000000000000107e+00 3.656740000000000108e-11
5.389999999999999680e+00 3.591379999999999829e-11
5.410000000000000142e+00 3.519070000000000029e-11
5.429999999999999716e+00 3.440619999999999773e-11
5.450000000000000178e+00 3.356840000000000063e-11
5.469999999999999751e+00 3.268530000000000008e-11
5.490000000000000213e+00 3.176430000000000269e-11
5.509999999999999787e+00 3.081260000000000302e-11
5.530000000000000249e+00 2.983709999999999693e-11
5.549999999999999822e+00 2.884419999999999861e-11
5.570000000000000284e+00 2.783969999999999900e-11
5.589999999999999858e+00 2.682919999999999962e-11
5.610000000000000320e+00 2.581770000000000135e-11
5.629999999999999893e+00 2.480970000000000080e-11
5.650000000000000355e+00 2.380939999999999910e-11
5.669999999999999929e+00 2.282049999999999954e-11
5.690000000000000391e+00 2.184599999999999880e-11
5.709999999999999964e+00 2.088889999999999998e-11
5.730000000000000426e+00 1.995169999999999868e-11
5.750000000000000000e+00 1.903639999999999914e-11
5.769999999999999574e+00 1.814479999999999999e-11
5.790000000000000036e+00 1.727819999999999882e-11
5.809999999999999609e+00 1.643799999999999923e-11
5.830000000000000071e+00 1.562479999999999861e-11
5.849999999999999645e+00 1.483930000000000039e-11
5.870000000000000107e+00 1.408210000000000035e-11
5.889999999999999680e+00 1.335329999999999966e-11
5.910000000000000142e+00 1.265299999999999950e-11
5.929999999999999716e+00 1.198100000000000075e-11
5.950000000000000178e+00 1.133709999999999942e-11
5.969999999999999751e+00 1.072100000000000006e-11
5.990000000000000213e+00 1.013229999999999955e-11
6.009999999999999787e+00 9.570280000000000697e-12
6.030000000000000249e+00 9.034470000000000378e-12
6.049999999999999822e+00 8.524129999999999545e-12
6.070000000000000284e+00 8.038559999999999626e-12
6.089999999999999858e+00 7.576990000000000413e-12
6.110000000000000320e+00 7.138639999999999963e-12
6.129999999999999893e+00 6.722689999999999903e-12
6.150000000000000355e+00 6.328310000000000123e-12
6.169999999999999929e+00 5.954679999999999826e-12
6.190000000000000391e+00 5.600969999999999711e-12
6.209999999999999964e+00 5.266340000000000358e-12
6.230000000000000426e+00 4.949980000000000280e-12
6.250000000000000000e+00 4.651060000000000177e-12
6.269999999999999574e+00 4.368809999999999839e-12
6.290000000000000036e+00 4.102439999999999632e-12
6.309999999999999609e+00 3.851190000000000274e-12
6.330000000000000071e+00 3.614319999999999891e-12
6.349999999999999645e+00 3.391129999999999910e-12
6.370000000000000107e+00 3.180910000000000024e-12
6.389999999999999680e+00 2.983009999999999827e-12
6.410000000000000142e+00 2.796770000000000007e-12
6.429999999999999716e+00 2.621589999999999940e-12
6.450000000000000178e+00 2.456849999999999977e-12
6.469999999999999751e+00 2.302009999999999801e-12
6.490000000000000213e+00 2.156520000000000185e-12
6.509999999999999787e+00 2.019859999999999837e-12
6.530000000000000249e+00 1.891520000000000002e-12
6.549999999999999822e+00 1.771040000000000095e-12
6.570000000000000284e+00 1.657979999999999969e-12
6.589999999999999858e+00 1.551900000000000082e-12
6.610000000000000320e+00 1.452390000000000034e-12
6.629999999999999893e+00 1.359079999999999900e-12
6.650000000000000355e+00 1.271599999999999954e-12
6.669999999999999929e+00 1.189600000000000101e-12
6.690000000000000391e+00 1.112759999999999996e-12
6.709999999999999964e+00 1.040759999999999899e-12
6.730000000000000426e+00 9.733170000000000218e-13
6.750000000000000000e+00 9.101520000000000582e-13
6.769999999999999574e+00 8.510039999999999956e-13
6.790000000000000036e+00 7.956260000000000270e-13
6.809999999999999609e+00 7.437879999999999605e-13
6.830000000000000071e+00 6.952719999999999681e-13
6.849999999999999645e+00 6.498689999999999646e-13
6.870000000000000107e+00 6.073869999999999846e-13
6.889999999999999680e+00 5.676449999999999506e-13
6.910000000000000142e+00 5.304699999999999601e-13
6.929999999999999716e+00 4.956999999999999982e-13
6.950000000000000178e+00 4.631840000000000386e-13
6.969999999999999751e+00 4.327799999999999997e-13
6.990000000000000213e+00 4.043549999999999971e-13
7.009999999999999787e+00 3.777810000000000035e-13
7.030000000000000249e+00 3.529420000000000020e-13
7.049999999999999822e+00 3.297269999999999843e-13
7.070000000000000284e+00 3.080300000000000011e-13
7.089999999999999858e+00 2.877559999999999908e-13
7.110000000000000320e+00 2.688130000000000078e-13
7.129999999999999893e+00 2.511160000000000076e-13
7.150000000000000355e+00 2.345819999999999894e-13
7.169999999999999929e+00 2.191389999999999915e-13
7.190000000000000391e+00 2.047140000000000050e-13
7.209999999999999964e+00 1.912429999999999910e-13
7.230000000000000426e+00 1.786630000000000082e-13
7.259999999999999787e+00 1.669159999999999978e-13
7.280000000000000249e+00 1.559479999999999884e-13
7.299999999999999822e+00 1.457089999999999954e-13
7.320000000000000284e+00 1.361500000000000055e-13
7.339999999999999858e+00 1.272280000000000108e-13
7.360000000000000320e+00 1.189000000000000033e-13
7.379999999999999893e+00 1.111279999999999961e-13
7.400000000000000355e+00 1.038749999999999991e-13
7.419999999999999929e+00 9.710709999999999423e-14
7.440000000000000391e+00 9.079279999999999810e-14
7.459999999999999964e+00 8.490209999999999726e-14
7.480000000000000426e+00 7.940690000000000216e-14
7.500000000000000000e+00 7.428130000000000580e-14
7.519999999999999574e+00 6.949980000000000492e-14
7.540000000000000036e+00 6.504190000000000480e-14
7.559999999999999609e+00 6.088499999999999755e-14
7.580000000000000071e+00 5.700950000000000310e-14
7.599999999999999645e+00 5.339649999999999745e-14
7.620000000000000107e+00 5.002889999999999850e-14
7.639999999999999680e+00 4.689019999999999820e-14
7.660000000000000142e+00 4.396549999999999704e-14
7.679999999999999716e+00 4.124029999999999922e-14
7.700000000000000178e+00 3.870159999999999763e-14
7.719999999999999751e+00 3.633680000000000149e-14
7.740000000000000213e+00 3.413449999999999960e-14
7.759999999999999787e+00 3.208369999999999712e-14
7.780000000000000249e+00 3.017450000000000310e-14
7.799999999999999822e+00 2.839730000000000096e-14
7.820000000000000284e+00 2.674340000000000144e-14
7.839999999999999858e+00 2.520450000000000004e-14
7.860000000000000320e+00 2.377290000000000099e-14
7.879999999999999893e+00 2.244140000000000056e-14
7.900000000000000355e+00 2.120329999999999963e-14
7.919999999999999929e+00 2.005240000000000059e-14
7.940000000000000391e+00 1.898279999999999915e-14
7.959999999999999964e+00 1.798890000000000009e-14
7.980000000000000426e+00 1.706589999999999989e-14
8.000000000000000000e+00 1.620869999999999850e-14
8.019999999999999574e+00 1.541310000000000111e-14
8.039999999999999147e+00 1.467469999999999842e-14
8.060000000000000497e+00 1.398980000000000025e-14
8.080000000000000071e+00 1.335479999999999999e-14
8.099999999999999645e+00 1.276619999999999985e-14
8.119999999999999218e+00 1.222080000000000010e-14
8.140000000000000568e+00 1.171579999999999998e-14
8.160000000000000142e+00 1.124829999999999939e-14
8.179999999999999716e+00 1.081580000000000035e-14
8.199999999999999289e+00 1.041589999999999951e-14
8.220000000000000639e+00 1.004630000000000076e-14
8.240000000000000213e+00 9.705009999999999508e-15
8.259999999999999787e+00 9.389959999999999250e-15
8.279999999999999361e+00 9.099379999999999959e-15
8.300000000000000711e+00 8.831540000000000719e-15
8.320000000000000284e+00 8.584870000000000204e-15
8.339999999999999858e+00 8.357870000000000262e-15
8.359999999999999432e+00 8.149169999999999849e-15
8.380000000000000782e+00 7.957459999999999737e-15
8.400000000000000355e+00 7.781539999999999829e-15
8.419999999999999929e+00 7.620280000000000044e-15
8.439999999999999503e+00 7.472630000000000101e-15
8.460000000000000853e+00 7.337599999999999955e-15
8.480000000000000426e+00 7.214279999999999364e-15
8.500000000000000000e+00 7.101819999999999899e-15
