# log10(T) rate(cm^3/s)
# RecombRates
3.500000000000000000e+00 7.446919999999999938e-12
3.520000000000000018e+00 7.205929999999999770e-12
3.540000000000000036e+00 6.972160000000000051e-12
3.560000000000000053e+00 6.745410000000000032e-12
3.580000000000000071e+00 6.525460000000000348e-12
3.600000000000000089e+00 6.312129999999999681e-12
3.620000000000000107e+00 6.105239999999999944e-12
3.640000000000000124e+00 5.904599999999999700e-12
3.660000000000000142e+00 5.710030000000000056e-12
3.680000000000000160e+00 5.521369999999999929e-12
3.700000000000000178e+00 5.338439999999999617e-12
3.720000000000000195e+00 5.161079999999999653e-12
3.740000000000000213e+00 4.989139999999999883e-12
3.759999999999999787e+00 4.822449999999999914e-12
3.779999999999999805e+00 4.660869999999999708e-12
3.799999999999999822e+00 4.504249999999999917e-12
3.819999999999999840e+00 4.352449999999999695e-12
3.839999999999999858e+00 4.205339999999999931e-12
3.859999999999999876e+00 4.062779999999999779e-12
3.879999999999999893e+00 3.924630000000000009e-12
3.899999999999999911e+00 3.790819999999999795e-12
3.919999999999999929e+00 3.661069999999999868e-12
3.939999999999999947e+00 3.535419999999999894e-12
3.959999999999999964e+00 3.411500000000000155e-12
3.979999999999999982e+00 3.293719999999999823e-12
4.000000000000000000e+00 3.179659999999999802e-12
4.019999999999999574e+00 3.069220000000000123e-12
4.040000000000000036e+00 2.962350000000000196e-12
4.059999999999999609e+00 2.858960000000000169e-12
4.080000000000000071e+00 2.759069999999999875e-12
4.099999999999999645e+00 2.662729999999999904e-12
4.120000000000000107e+00 2.570039999999999821e-12
4.139999999999999680e+00 2.481210000000000087e-12
4.160000000000000142e+00 2.396539999999999803e-12
4.179999999999999716e+00 2.316489999999999957e-12
4.200000000000000178e+00 2.241689999999999912e-12
4.219999999999999751e+00 2.172939999999999827e-12
4.240000000000000213e+00 2.111330000000000052e-12
4.259999999999999787e+00 2.058160000000000189e-12
4.280000000000000249e+00 2.015009999999999913e-12
4.299999999999999822e+00 1.983879999999999822e-12
4.320000000000000284e+00 1.967040000000000068e-12
4.339999999999999858e+00 1.967150000000000155e-12
4.360000000000000320e+00 1.987330000000000176e-12
4.379999999999999893e+00 2.031210000000000187e-12
4.400000000000000355e+00 2.103060000000000128e-12
4.419999999999999929e+00 2.207890000000000198e-12
4.440000000000000391e+00 2.351560000000000130e-12
4.459999999999999964e+00 2.540979999999999943e-12
4.480000000000000426e+00 2.784230000000000143e-12
4.500000000000000000e+00 3.090730000000000099e-12
4.519999999999999574e+00 3.471340000000000030e-12
4.540000000000000036e+00 3.938340000000000362e-12
4.559999999999999609e+00 4.505520000000000375e-12
4.580000000000000071e+00 5.187889999999999617e-12
4.599999999999999645e+00 6.001570000000000245e-12
4.620000000000000107e+00 6.963249999999999839e-12
4.639999999999999680e+00 8.089800000000000527e-12
4.660000000000000142e+00 9.397659999999999358e-12
4.679999999999999716e+00 1.090209999999999976e-11
4.700000000000000178e+00 1.261640000000000024e-11
4.719999999999999751e+00 1.455130000000000000e-11
4.740000000000000213e+00 1.671430000000000038e-11
4.769999999999999574e+00 1.910890000000000070e-11
4.790000000000000036e+00 2.173390000000000133e-11
4.809999999999999609e+00 2.458349999999999839e-11
4.830000000000000071e+00 2.764690000000000006e-11
4.849999999999999645e+00 3.090790000000000242e-11
4.870000000000000107e+00 3.434570000000000217e-11
4.889999999999999680e+00 3.793479999999999705e-11
4.910000000000000142e+00 4.164599999999999763e-11
4.929999999999999716e+00 4.544629999999999872e-11
4.950000000000000178e+00 4.930009999999999993e-11
4.969999999999999751e+00 5.317010000000000181e-11
4.990000000000000213e+00 5.701820000000000195e-11
5.009999999999999787e+00 6.080569999999999404e-11
5.030000000000000249e+00 6.449529999999999803e-11
5.049999999999999822e+00 6.805050000000000453e-11
5.070000000000000284e+00 7.143770000000000447e-11
5.089999999999999858e+00 7.462550000000000509e-11
5.110000000000000320e+00 7.758649999999999620e-11
5.129999999999999893e+00 8.029609999999999427e-11
5.150000000000000355e+00 8.273469999999999400e-11
5.169999999999999929e+00 8.488579999999999601e-11
5.190000000000000391e+00 8.673779999999999902e-11
5.209999999999999964e+00 8.828289999999999817e-11
5.230000000000000426e+00 8.951740000000000305e-11
5.250000000000000000e+00 9.044099999999999560e-11
5.269999999999999574e+00 9.105729999999999895e-11
5.290000000000000036e+00 9.137300000000000335e-11
5.309999999999999609e+00 9.139749999999999380e-11
5.330000000000000071e+00 9.114259999999999657e-11
5.349999999999999645e+00 9.062239999999999562e-11
5.370000000000000107e+00 8.985250000000000069e-11
5.389999999999999680e+00 8.884990000000000251e-11
5.410000000000000142e+00 8.763279999999999955e-11
5.429999999999999716e+00 8.621969999999999541e-11
5.450000000000000178e+00 8.462959999999999797e-11
5.469999999999999751e+00 8.288179999999999445e-11
5.490000000000000213e+00 8.099519999999999964e-11
5.509999999999999787e+00 7.898839999999999733e-11
5.530000000000000249e+00 7.687950000000000578e-11
5.549999999999999822e+00 7.468579999999999504e-11
5.570000000000000284e+00 7.242400000000000240e-11
5.589999999999999858e+00 7.010960000000000572e-11
5.610000000000000320e+00 6.775740000000000530e-11
5.629999999999999893e+00 6.538099999999999374e-11
5.650000000000000355e+00 6.299299999999999381e-11
5.669999999999999929e+00 6.060499999999999389e-11
5.690000000000000391e+00 5.822720000000000134e-11
5.709999999999999964e+00 5.586929999999999984e-11
5.730000000000000426e+00 5.353959999999999857e-11
5.750000000000000000e+00 5.124549999999999768e-11
5.769999999999999574e+00 4.899340000000000165e-11
5.790000000000000036e+00 4.678909999999999821e-11
5.809999999999999609e+00 4.463719999999999967e-11
5.830000000000000071e+00 4.254160000000000202e-11
5.849999999999999645e+00 4.050569999999999693e-11
5.870000000000000107e+00 3.853199999999999939e-11
5.889999999999999680e+00 3.662260000000000028e-11
5.910000000000000142e+00 3.477880000000000040e-11
5.929999999999999716e+00 3.300150000000000231e-11
5.950000000000000178e+00 3.129129999999999693e-11
5.969999999999999751e+00 2.964819999999999720e-11
5.990000000000000213e+00 2.807190000000000118e-11
6.009999999999999787e+00 2.656190000000000135e-11
6.030000000000000249e+00 2.511719999999999884e-11
6.049999999999999822e+00 2.373669999999999841e-11
6.070000000000000284e+00 2.241909999999999926e-11
6.089999999999999858e+00 2.116300000000000100e-11
6.110000000000000320e+00 1.996690000000000048e-11
6.129999999999999893e+00 1.882879999999999990e-11
6.150000000000000355e+00 1.774709999999999978e-11
6.169999999999999929e+00 1.671989999999999866e-11
6.190000000000000391e+00 1.574519999999999878e-11
6.209999999999999964e+00 1.482120000000000151e-11
6.230000000000000426e+00 1.394579999999999981e-11
6.250000000000000000e+00 1.311710000000000032e-11
6.269999999999999574e+00 1.233319999999999999e-11
6.290000000000000036e+00 1.159209999999999945e-11
6.309999999999999609e+00 1.089190000000000047e-11
6.330000000000000071e+00 1.023079999999999958e-11
6.349999999999999645e+00 9.606859999999999719e-12
6.370000000000000107e+00 9.018400000000000427e-12
6.389999999999999680e+00 8.463640000000000073e-12
6.410000000000000142e+00 7.940920000000000054e-12
6.429999999999999716e+00 7.448609999999999702e-12
6.450000000000000178e+00 6.985139999999999860e-12
6.469999999999999751e+00 6.548999999999999660e-12
6.490000000000000213e+00 6.138759999999999987e-12
6.509999999999999787e+00 5.753010000000000343e-12
6.530000000000000249e+00 5.390420000000000370e-12
6.549999999999999822e+00 5.049719999999999611e-12
6.570000000000000284e+00 4.729699999999999930e-12
6.589999999999999858e+00 4.429189999999999629e-12
6.610000000000000320e+00 4.147070000000000019e-12
6.629999999999999893e+00 3.882310000000000246e-12
6.650000000000000355e+00 3.633909999999999810e-12
6.669999999999999929e+00 3.400909999999999894e-12
6.690000000000000391e+00 3.182409999999999967e-12
6.709999999999999964e+00 2.977549999999999970e-12
6.730000000000000426e+00 2.785530000000000148e-12
6.750000000000000000e+00 2.605579999999999890e-12
6.769999999999999574e+00 2.436969999999999864e-12
6.790000000000000036e+00 2.279020000000000118e-12
6.809999999999999609e+00 2.131089999999999960e-12
6.830000000000000071e+00 1.992560000000000145e-12
6.849999999999999645e+00 1.862879999999999833e-12
6.870000000000000107e+00 1.741459999999999933e-12
6.889999999999999680e+00 1.627809999999999907e-12
6.910000000000000142e+00 1.521460000000000062e-12
6.929999999999999716e+00 1.421950000000000015e-12
6.950000000000000178e+00 1.328840000000000021e-12
6.969999999999999751e+00 1.241750000000000035e-12
6.990000000000000213e+00 1.160290000000000098e-12
7.009999999999999787e+00 1.084099999999999995e-12
7.030000000000000249e+00 1.012850000000000072e-12
7.049999999999999822e+00 9.462380000000000722e-13
7.070000000000000284e+00 8.839560000000000151e-13
7.089999999999999858e+00 8.257319999999999999e-13
7.110000000000000320e+00 7.713090000000000004e-13
7.129999999999999893e+00 7.204409999999999793e-13
7.150000000000000355e+00 6.729009999999999617e-13
7.169999999999999929e+00 6.284750000000000054e-13
7.190000000000000391e+00 5.869629999999999699e-13
7.209999999999999964e+00 5.481769999999999774e-13
7.230000000000000426e+00 5.119410000000000094e-13
7.259999999999999787e+00 4.780879999999999920e-13
7.280000000000000249e+00 4.464680000000000218e-13
7.299999999999999822e+00 4.169329999999999865e-13
7.320000000000000284e+00 3.893469999999999868e-13
7.339999999999999858e+00 3.635850000000000103e-13
7.360000000000000320e+00 3.395280000000000251e-13
7.379999999999999893e+00 3.170640000000000008e-13
7.400000000000000355e+00 2.960889999999999817e-13
7.419999999999999929e+00 2.765060000000000135e-13
7.440000000000000391e+00 2.582249999999999927e-13
7.459999999999999964e+00 2.411600000000000044e-13
7.480000000000000426e+00 2.252299999999999905e-13
7.500000000000000000e+00 2.103619999999999926e-13
7.519999999999999574e+00 1.964859999999999920e-13
7.540000000000000036e+00 1.835370000000000034e-13
7.559999999999999609e+00 1.714530000000000066e-13
7.580000000000000071e+00 1.601780000000000118e-13
7.599999999999999645e+00 1.496589999999999937e-13
7.620000000000000107e+00 1.398449999999999963e-13
7.639999999999999680e+00 1.306899999999999965e-13
7.660000000000000142e+00 1.221520000000000080e-13
7.679999999999999716e+00 1.141879999999999977e-13
7.700000000000000178e+00 1.067610000000000007e-13
7.719999999999999751e+00 9.983520000000000004e-14
7.740000000000000213e+00 9.337819999999999787e-14
7.759999999999999787e+00 8.735829999999999643e-14
7.780000000000000249e+00 8.174689999999999522e-14
7.799999999999999822e+00 7.651660000000000487e-14
7.820000000000000284e+00 7.164239999999999521e-14
7.839999999999999858e+00 6.710040000000000305e-14
7.860000000000000320e+00 6.286720000000000045e-14
7.879999999999999893e+00 5.892499999999999883e-14
7.900000000000000355e+00 5.525329999999999717e-14
7.919999999999999929e+00 5.183399999999999779e-14
7.940000000000000391e+00 4.865049999999999803e-14
7.959999999999999964e+00 4.568680000000000077e-14
7.980000000000000426e+00 4.292839999999999760e-14
8.000000000000000000e+00 4.036170000000000108e-14
8.019999999999999574e+00 3.797369999999999777e-14
8.039999999999999147e+00 3.575249999999999710e-14
8.060000000000000497e+00 3.368709999999999789e-14
8.080000000000000071e+00 3.176709999999999825e-14
8.099999999999999645e+00 2.998260000000000090e-14
8.119999999999999218e+00 2.832450000000000025e-14
8.140000000000000568e+00 2.678440000000000033e-14
8.160000000000000142e+00 2.535440000000000036e-14
8.179999999999999716e+00 2.402700000000000013e-14
8.199999999999999289e+00 2.279529999999999868e-14
8.220000000000000639e+00 2.165289999999999968e-14
8.240000000000000213e+00 2.059389999999999884e-14
8.259999999999999787e+00 1.961240000000000133e-14
8.279999999999999361e+00 1.870319999999999989e-14
8.300000000000000711e+00 1.786150000000000043e-14
8.320000000000000284e+00 1.708270000000000126e-14
8.339999999999999858e+00 1.636239999999999940e-14
8.359999999999999432e+00 1.569680000000000058e-14
8.380000000000000782e+00 1.508189999999999920e-14
8.400000000000000355e+00 1.451450000000000028e-14
8.419999999999999929e+00 1.399109999999999970e-14
8.439999999999999503e+00 1.350880000000000052e-14
8.460000000000000853e+00 1.306469999999999948e-14
8.480000000000000426e+00 1.265609999999999990e-14
8.500000000000000000e+00 1.228069999999999936e-14
