# log10(T) rate(cm^3/s)
# RecombRates
3.500000000000000000e+00 1.014030000000000064e-10
3.520000000000000018e+00 9.842610000000000042e-11
3.540000000000000036e+00 9.553250000000000072e-11
3.560000000000000053e+00 9.272000000000000397e-11
3.580000000000000071e+00 8.998630000000000078e-11
3.600000000000000089e+00 8.732939999999999986e-11
3.620000000000000107e+00 8.474709999999999782e-11
3.640000000000000124e+00 8.223749999999999648e-11
3.660000000000000142e+00 7.979860000000000452e-11
3.680000000000000160e+00 7.742840000000000478e-11
3.700000000000000178e+00 7.512510000000000510e-11
3.720000000000000195e+00 7.288690000000000036e-11
3.740000000000000213e+00 7.071190000000000528e-11
3.759999999999999787e+00 6.859859999999999408e-11
3.779999999999999805e+00 6.654509999999999440e-11
3.799999999999999822e+00 6.454980000000000027e-11
3.819999999999999840e+00 6.261119999999999881e-11
3.839999999999999858e+00 6.072780000000000302e-11
3.859999999999999876e+00 5.889790000000000089e-11
3.879999999999999893e+00 5.712019999999999808e-11
3.899999999999999911e+00 5.539320000000000110e-11
3.919999999999999929e+00 5.371550000000000310e-11
3.939999999999999947e+00 5.208579999999999683e-11
3.959999999999999964e+00 5.050280000000000085e-11
3.979999999999999982e+00 4.896510000000000186e-11
4.000000000000000000e+00 4.747149999999999861e-11
4.019999999999999574e+00 4.602080000000000278e-11
4.040000000000000036e+00 4.461189999999999977e-11
4.059999999999999609e+00 4.324360000000000125e-11
4.080000000000000071e+00 4.191469999999999951e-11
4.099999999999999645e+00 4.062419999999999890e-11
4.120000000000000107e+00 3.937099999999999774e-11
4.139999999999999680e+00 3.815410000000000037e-11
4.160000000000000142e+00 3.697249999999999821e-11
4.179999999999999716e+00 3.582510000000000252e-11
4.200000000000000178e+00 3.471109999999999737e-11
4.219999999999999751e+00 3.362959999999999960e-11
4.240000000000000213e+00 3.257950000000000108e-11
4.259999999999999787e+00 3.156019999999999794e-11
4.280000000000000249e+00 3.057050000000000186e-11
4.299999999999999822e+00 2.960990000000000210e-11
4.320000000000000284e+00 2.867739999999999976e-11
4.339999999999999858e+00 2.777240000000000069e-11
4.360000000000000320e+00 2.689389999999999954e-11
4.379999999999999893e+00 2.604129999999999891e-11
4.400000000000000355e+00 2.521379999999999905e-11
4.419999999999999929e+00 2.441079999999999934e-11
4.440000000000000391e+00 2.363150000000000003e-11
4.459999999999999964e+00 2.287540000000000005e-11
4.480000000000000426e+00 2.214160000000000009e-11
4.500000000000000000e+00 2.142969999999999865e-11
4.519999999999999574e+00 2.073899999999999877e-11
4.540000000000000036e+00 2.006889999999999984e-11
4.559999999999999609e+00 1.941880000000000123e-11
4.580000000000000071e+00 1.878819999999999864e-11
4.599999999999999645e+00 1.817650000000000116e-11
4.620000000000000107e+00 1.758309999999999846e-11
4.639999999999999680e+00 1.700770000000000153e-11
4.660000000000000142e+00 1.644960000000000051e-11
4.679999999999999716e+00 1.590840000000000035e-11
4.700000000000000178e+00 1.538369999999999957e-11
4.719999999999999751e+00 1.487500000000000033e-11
4.740000000000000213e+00 1.438189999999999954e-11
4.769999999999999574e+00 1.390419999999999966e-11
4.790000000000000036e+00 1.344160000000000040e-11
4.809999999999999609e+00 1.299400000000000057e-11
4.830000000000000071e+00 1.256119999999999943e-11
4.849999999999999645e+00 1.214360000000000008e-11
4.870000000000000107e+00 1.174119999999999929e-11
4.889999999999999680e+00 1.135470000000000048e-11
4.910000000000000142e+00 1.098480000000000061e-11
4.929999999999999716e+00 1.063250000000000018e-11
4.950000000000000178e+00 1.029900000000000044e-11
4.969999999999999751e+00 9.985860000000000427e-12
4.990000000000000213e+00 9.694799999999999443e-12
5.009999999999999787e+00 9.427790000000000564e-12
5.030000000000000249e+00 9.186940000000000434e-12
5.049999999999999822e+00 8.974430000000000565e-12
5.070000000000000284e+00 8.792439999999999237e-12
5.089999999999999858e+00 8.643050000000000012e-12
5.110000000000000320e+00 8.528139999999999243e-12
5.129999999999999893e+00 8.449280000000000122e-12
5.150000000000000355e+00 8.407630000000000193e-12
5.169999999999999929e+00 8.403860000000000099e-12
5.190000000000000391e+00 8.438069999999999405e-12
5.209999999999999964e+00 8.509929999999999869e-12
5.230000000000000426e+00 8.617650000000000544e-12
5.250000000000000000e+00 8.760050000000000422e-12
5.269999999999999574e+00 8.934529999999999493e-12
5.290000000000000036e+00 9.137980000000000610e-12
5.309999999999999609e+00 9.366770000000000487e-12
5.330000000000000071e+00 9.616839999999999642e-12
5.349999999999999645e+00 9.883839999999999211e-12
5.370000000000000107e+00 1.016319999999999935e-11
5.389999999999999680e+00 1.045019999999999923e-11
5.410000000000000142e+00 1.074020000000000062e-11
5.429999999999999716e+00 1.102880000000000002e-11
5.450000000000000178e+00 1.131179999999999952e-11
5.469999999999999751e+00 1.158539999999999949e-11
5.490000000000000213e+00 1.184660000000000003e-11
5.509999999999999787e+00 1.209290000000000071e-11
5.530000000000000249e+00 1.232230000000000052e-11
5.549999999999999822e+00 1.253399999999999970e-11
5.570000000000000284e+00 1.272780000000000076e-11
5.589999999999999858e+00 1.290419999999999988e-11
5.610000000000000320e+00 1.306489999999999939e-11
5.629999999999999893e+00 1.321190000000000028e-11
5.650000000000000355e+00 1.334809999999999964e-11
5.669999999999999929e+00 1.347690000000000046e-11
5.690000000000000391e+00 1.360190000000000003e-11
5.709999999999999964e+00 1.372719999999999991e-11
5.730000000000000426e+00 1.385659999999999974e-11
5.750000000000000000e+00 1.399400000000000035e-11
5.769999999999999574e+00 1.414300000000000062e-11
5.790000000000000036e+00 1.430639999999999971e-11
5.809999999999999609e+00 1.448720000000000071e-11
5.830000000000000071e+00 1.468600000000000104e-11
5.849999999999999645e+00 1.490470000000000050e-11
5.870000000000000107e+00 1.514310000000000158e-11
5.889999999999999680e+00 1.540029999999999851e-11
5.910000000000000142e+00 1.567459999999999866e-11
5.929999999999999716e+00 1.596359999999999955e-11
5.950000000000000178e+00 1.626399999999999936e-11
5.969999999999999751e+00 1.657199999999999845e-11
5.990000000000000213e+00 1.688349999999999849e-11
6.009999999999999787e+00 1.719380000000000051e-11
6.030000000000000249e+00 1.749809999999999952e-11
6.049999999999999822e+00 1.779160000000000024e-11
6.070000000000000284e+00 1.806929999999999854e-11
6.089999999999999858e+00 1.832660000000000150e-11
6.110000000000000320e+00 1.855909999999999914e-11
6.129999999999999893e+00 1.876289999999999874e-11
6.150000000000000355e+00 1.893439999999999978e-11
6.169999999999999929e+00 1.907059999999999914e-11
6.190000000000000391e+00 1.916910000000000079e-11
6.209999999999999964e+00 1.922780000000000093e-11
6.230000000000000426e+00 1.924570000000000068e-11
6.250000000000000000e+00 1.922209999999999985e-11
6.269999999999999574e+00 1.915669999999999975e-11
6.290000000000000036e+00 1.904989999999999863e-11
6.309999999999999609e+00 1.890259999999999904e-11
6.330000000000000071e+00 1.871620000000000137e-11
6.349999999999999645e+00 1.849229999999999866e-11
6.370000000000000107e+00 1.823290000000000160e-11
6.389999999999999680e+00 1.794030000000000021e-11
6.410000000000000142e+00 1.761699999999999976e-11
6.429999999999999716e+00 1.726559999999999865e-11
6.450000000000000178e+00 1.688900000000000043e-11
6.469999999999999751e+00 1.648989999999999984e-11
6.490000000000000213e+00 1.607129999999999999e-11
6.509999999999999787e+00 1.563599999999999840e-11
6.530000000000000249e+00 1.518679999999999906e-11
6.549999999999999822e+00 1.472630000000000037e-11
6.570000000000000284e+00 1.425739999999999941e-11
6.589999999999999858e+00 1.378229999999999955e-11
6.610000000000000320e+00 1.330349999999999961e-11
6.629999999999999893e+00 1.282319999999999972e-11
6.650000000000000355e+00 1.234339999999999928e-11
6.669999999999999929e+00 1.186599999999999972e-11
6.690000000000000391e+00 1.139270000000000011e-11
6.709999999999999964e+00 1.092500000000000040e-11
6.730000000000000426e+00 1.046440000000000053e-11
6.750000000000000000e+00 1.001210000000000012e-11
6.769999999999999574e+00 9.569000000000000121e-12
6.790000000000000036e+00 9.136160000000000119e-12
6.809999999999999609e+00 8.713919999999999285e-12
6.830000000000000071e+00 8.303679999999999611e-12
6.849999999999999645e+00 7.905520000000000427e-12
6.870000000000000107e+00 7.519900000000000703e-12
6.889999999999999680e+00 7.147150000000000297e-12
6.910000000000000142e+00 6.787469999999999956e-12
6.929999999999999716e+00 6.440989999999999599e-12
6.950000000000000178e+00 6.107749999999999698e-12
6.969999999999999751e+00 5.787730000000000017e-12
6.990000000000000213e+00 5.480820000000000066e-12
7.009999999999999787e+00 5.186869999999999688e-12
7.030000000000000249e+00 4.905689999999999870e-12
7.049999999999999822e+00 4.637050000000000320e-12
7.070000000000000284e+00 4.380660000000000036e-12
7.089999999999999858e+00 4.136229999999999633e-12
7.110000000000000320e+00 3.903450000000000296e-12
7.129999999999999893e+00 3.681970000000000314e-12
7.150000000000000355e+00 3.471429999999999881e-12
7.169999999999999929e+00 3.271459999999999876e-12
7.190000000000000391e+00 3.081700000000000086e-12
7.209999999999999964e+00 2.901789999999999897e-12
7.230000000000000426e+00 2.731290000000000169e-12
7.259999999999999787e+00 2.569850000000000000e-12
7.280000000000000249e+00 2.417099999999999869e-12
7.299999999999999822e+00 2.272660000000000133e-12
7.320000000000000284e+00 2.136160000000000058e-12
7.339999999999999858e+00 2.007230000000000122e-12
7.360000000000000320e+00 1.885540000000000062e-12
7.379999999999999893e+00 1.770719999999999951e-12
7.400000000000000355e+00 1.662439999999999932e-12
7.419999999999999929e+00 1.560389999999999978e-12
7.440000000000000391e+00 1.464240000000000029e-12
7.459999999999999964e+00 1.373689999999999976e-12
7.480000000000000426e+00 1.288450000000000028e-12
7.500000000000000000e+00 1.208250000000000027e-12
7.519999999999999574e+00 1.132799999999999979e-12
7.540000000000000036e+00 1.061860000000000082e-12
7.559999999999999609e+00 9.951710000000000618e-13
7.580000000000000071e+00 9.325059999999999446e-13
7.599999999999999645e+00 8.736360000000000147e-13
7.620000000000000107e+00 8.183500000000000420e-13
7.639999999999999680e+00 7.664409999999999852e-13
7.660000000000000142e+00 7.177179999999999514e-13
7.679999999999999716e+00 6.719950000000000058e-13
7.700000000000000178e+00 6.290990000000000440e-13
7.719999999999999751e+00 5.888629999999999921e-13
7.740000000000000213e+00 5.511320000000000390e-13
7.759999999999999787e+00 5.157570000000000005e-13
7.780000000000000249e+00 4.825969999999999681e-13
7.799999999999999822e+00 4.515199999999999784e-13
7.820000000000000284e+00 4.224490000000000107e-13
7.839999999999999858e+00 3.951689999999999997e-13
7.860000000000000320e+00 3.696239999999999808e-13
7.879999999999999893e+00 3.457049999999999896e-13
7.900000000000000355e+00 3.233150000000000213e-13
7.919999999999999929e+00 3.023579999999999926e-13
7.940000000000000391e+00 2.827479999999999883e-13
7.959999999999999964e+00 2.643980000000000211e-13
7.980000000000000426e+00 2.472330000000000129e-13
8.000000000000000000e+00 2.311759999999999936e-13
8.019999999999999574e+00 2.161600000000000099e-13
8.039999999999999147e+00 2.021190000000000044e-13
8.060000000000000497e+00 1.889920000000000039e-13
8.080000000000000071e+00 1.767219999999999966e-13
8.099999999999999645e+00 1.652550000000000112e-13
8.119999999999999218e+00 1.545409999999999874e-13
8.140000000000000568e+00 1.445320000000000096e-13
8.160000000000000142e+00 1.351839999999999973e-13
8.179999999999999716e+00 1.264549999999999898e-13
8.199999999999999289e+00 1.183069999999999875e-13
8.220000000000000639e+00 1.107020000000000038e-13
8.240000000000000213e+00 1.036069999999999972e-13
8.259999999999999787e+00 9.698959999999999498e-14
8.279999999999999361e+00 9.081929999999999804e-14
8.300000000000000711e+00 8.506750000000000583e-14
8.320000000000000284e+00 7.970800000000000226e-14
8.339999999999999858e+00 7.471590000000000226e-14
8.359999999999999432e+00 7.006780000000000311e-14
8.380000000000000782e+00 6.574199999999999896e-14
8.400000000000000355e+00 6.171810000000000235e-14
8.419999999999999929e+00 5.797649999999999535e-14
8.439999999999999503e+00 5.449959999999999756e-14
8.460000000000000853e+00 5.127009999999999981e-14
8.480000000000000426e+00 4.827259999999999794e-14
8.500000000000000000e+00 4.549199999999999690e-14
