# log10(T) rate(cm^3/s)
# RecombRates
3.500000000000000000e+00 3.829319999999999682e-11
3.520000000000000018e+00 3.712750000000000310e-11
3.540000000000000036e+00 3.599519999999999994e-11
3.560000000000000053e+00 3.489539999999999770e-11
3.580000000000000071e+00 3.382729999999999986e-11
3.600000000000000089e+00 3.278999999999999740e-11
3.620000000000000107e+00 3.178260000000000071e-11
3.640000000000000124e+00 3.080420000000000076e-11
3.660000000000000142e+00 2.985410000000000059e-11
3.680000000000000160e+00 2.893160000000000003e-11
3.700000000000000178e+00 2.803570000000000018e-11
3.720000000000000195e+00 2.716589999999999999e-11
3.740000000000000213e+00 2.632139999999999970e-11
3.759999999999999787e+00 2.550139999999999956e-11
3.779999999999999805e+00 2.470529999999999895e-11
3.799999999999999822e+00 2.393250000000000046e-11
3.819999999999999840e+00 2.318220000000000112e-11
3.839999999999999858e+00 2.245399999999999944e-11
3.859999999999999876e+00 2.174699999999999932e-11
3.879999999999999893e+00 2.106079999999999928e-11
3.899999999999999911e+00 2.039479999999999868e-11
3.919999999999999929e+00 1.974840000000000014e-11
3.939999999999999947e+00 1.912109999999999937e-11
3.959999999999999964e+00 1.851229999999999898e-11
3.979999999999999982e+00 1.792150000000000113e-11
4.000000000000000000e+00 1.734830000000000111e-11
4.019999999999999574e+00 1.679199999999999873e-11
4.040000000000000036e+00 1.625229999999999851e-11
4.059999999999999609e+00 1.572879999999999898e-11
4.080000000000000071e+00 1.522089999999999949e-11
4.099999999999999645e+00 1.472850000000000050e-11
4.120000000000000107e+00 1.425120000000000051e-11
4.139999999999999680e+00 1.378899999999999951e-11
4.160000000000000142e+00 1.334219999999999943e-11
4.179999999999999716e+00 1.291150000000000047e-11
4.200000000000000178e+00 1.249820000000000020e-11
4.219999999999999751e+00 1.210480000000000069e-11
4.240000000000000213e+00 1.173509999999999995e-11
4.259999999999999787e+00 1.139490000000000025e-11
4.280000000000000249e+00 1.109300000000000049e-11
4.299999999999999822e+00 1.084109999999999992e-11
4.320000000000000284e+00 1.065550000000000039e-11
4.339999999999999858e+00 1.055749999999999980e-11
4.360000000000000320e+00 1.057410000000000035e-11
4.379999999999999893e+00 1.073899999999999938e-11
4.400000000000000355e+00 1.109249999999999944e-11
4.419999999999999929e+00 1.168220000000000045e-11
4.440000000000000391e+00 1.256210000000000036e-11
4.459999999999999964e+00 1.379210000000000057e-11
4.480000000000000426e+00 1.543680000000000143e-11
4.500000000000000000e+00 1.756380000000000156e-11
4.519999999999999574e+00 2.024120000000000063e-11
4.540000000000000036e+00 2.353550000000000044e-11
4.559999999999999609e+00 2.750499999999999963e-11
4.580000000000000071e+00 3.221210000000000165e-11
4.599999999999999645e+00 3.769740000000000131e-11
4.620000000000000107e+00 4.399239999999999741e-11
4.639999999999999680e+00 5.111400000000000051e-11
4.660000000000000142e+00 5.906269999999999551e-11
4.679999999999999716e+00 6.782049999999999601e-11
4.700000000000000178e+00 7.735109999999999824e-11
4.719999999999999751e+00 8.760050000000000422e-11
4.740000000000000213e+00 9.849719999999999514e-11
4.769999999999999574e+00 1.099530000000000054e-10
4.790000000000000036e+00 1.218669999999999887e-10
4.809999999999999609e+00 1.341259999999999978e-10
4.830000000000000071e+00 1.466069999999999984e-10
4.849999999999999645e+00 1.591830000000000127e-10
4.870000000000000107e+00 1.717230000000000025e-10
4.889999999999999680e+00 1.840949999999999986e-10
4.910000000000000142e+00 1.961739999999999887e-10
4.929999999999999716e+00 2.078370000000000031e-10
4.950000000000000178e+00 2.189680000000000032e-10
4.969999999999999751e+00 2.294649999999999929e-10
4.990000000000000213e+00 2.392350000000000016e-10
5.009999999999999787e+00 2.481980000000000150e-10
5.030000000000000249e+00 2.562869999999999754e-10
5.049999999999999822e+00 2.634489999999999967e-10
5.070000000000000284e+00 2.696470000000000202e-10
5.089999999999999858e+00 2.748549999999999778e-10
5.110000000000000320e+00 2.790610000000000251e-10
5.129999999999999893e+00 2.822650000000000070e-10
5.150000000000000355e+00 2.844809999999999919e-10
5.169999999999999929e+00 2.857279999999999877e-10
5.190000000000000391e+00 2.860399999999999759e-10
5.209999999999999964e+00 2.854540000000000154e-10
5.230000000000000426e+00 2.840169999999999923e-10
5.250000000000000000e+00 2.817780000000000169e-10
5.269999999999999574e+00 2.787950000000000180e-10
5.290000000000000036e+00 2.751230000000000021e-10
5.309999999999999609e+00 2.708239999999999842e-10
5.330000000000000071e+00 2.659580000000000136e-10
5.349999999999999645e+00 2.605859999999999933e-10
5.370000000000000107e+00 2.547699999999999898e-10
5.389999999999999680e+00 2.485669999999999751e-10
5.410000000000000142e+00 2.420359999999999901e-10
5.429999999999999716e+00 2.352319999999999896e-10
5.450000000000000178e+00 2.282070000000000061e-10
5.469999999999999751e+00 2.210099999999999947e-10
5.490000000000000213e+00 2.136879999999999966e-10
5.509999999999999787e+00 2.062839999999999930e-10
5.530000000000000249e+00 1.988379999999999910e-10
5.549999999999999822e+00 1.913850000000000065e-10
5.570000000000000284e+00 1.839600000000000037e-10
5.589999999999999858e+00 1.765909999999999902e-10
5.610000000000000320e+00 1.693049999999999908e-10
5.629999999999999893e+00 1.621249999999999959e-10
5.650000000000000355e+00 1.550729999999999876e-10
5.669999999999999929e+00 1.481649999999999997e-10
5.690000000000000391e+00 1.414179999999999970e-10
5.709999999999999964e+00 1.348419999999999879e-10
5.730000000000000426e+00 1.284509999999999889e-10
5.750000000000000000e+00 1.222499999999999914e-10
5.769999999999999574e+00 1.162469999999999993e-10
5.790000000000000036e+00 1.104470000000000039e-10
5.809999999999999609e+00 1.048530000000000049e-10
5.830000000000000071e+00 9.946599999999999804e-11
5.849999999999999645e+00 9.428709999999999797e-11
5.870000000000000107e+00 8.931560000000000123e-11
5.889999999999999680e+00 8.454990000000000185e-11
5.910000000000000142e+00 7.998739999999999822e-11
5.929999999999999716e+00 7.562499999999999734e-11
5.950000000000000178e+00 7.145899999999999591e-11
5.969999999999999751e+00 6.748480000000000099e-11
5.990000000000000213e+00 6.369770000000000070e-11
6.009999999999999787e+00 6.009250000000000471e-11
6.030000000000000249e+00 5.666379999999999772e-11
6.049999999999999822e+00 5.340579999999999848e-11
6.070000000000000284e+00 5.031269999999999987e-11
6.089999999999999858e+00 4.737860000000000170e-11
6.110000000000000320e+00 4.459749999999999773e-11
6.129999999999999893e+00 4.196330000000000154e-11
6.150000000000000355e+00 3.947000000000000044e-11
6.169999999999999929e+00 3.711170000000000069e-11
6.190000000000000391e+00 3.488240000000000250e-11
6.209999999999999964e+00 3.277639999999999835e-11
6.230000000000000426e+00 3.078800000000000008e-11
6.250000000000000000e+00 2.891159999999999971e-11
6.269999999999999574e+00 2.714190000000000090e-11
6.290000000000000036e+00 2.547370000000000040e-11
6.309999999999999609e+00 2.390180000000000141e-11
6.330000000000000071e+00 2.242129999999999939e-11
6.349999999999999645e+00 2.102770000000000096e-11
6.370000000000000107e+00 1.971620000000000115e-11
6.389999999999999680e+00 1.848249999999999925e-11
6.410000000000000142e+00 1.732250000000000015e-11
6.429999999999999716e+00 1.623209999999999906e-11
6.450000000000000178e+00 1.520749999999999957e-11
6.469999999999999751e+00 1.424469999999999968e-11
6.490000000000000213e+00 1.334080000000000067e-11
6.509999999999999787e+00 1.249229999999999999e-11
6.530000000000000249e+00 1.169579999999999950e-11
6.549999999999999822e+00 1.094850000000000005e-11
6.570000000000000284e+00 1.024749999999999970e-11
6.589999999999999858e+00 9.590130000000000052e-12
6.610000000000000320e+00 8.973739999999999687e-12
6.629999999999999893e+00 8.395940000000000270e-12
6.650000000000000355e+00 7.854430000000000491e-12
6.669999999999999929e+00 7.347030000000000451e-12
6.690000000000000391e+00 6.871659999999999822e-12
6.709999999999999964e+00 6.426400000000000163e-12
6.730000000000000426e+00 6.009399999999999819e-12
6.750000000000000000e+00 5.618949999999999600e-12
6.769999999999999574e+00 5.253390000000000095e-12
6.790000000000000036e+00 4.911190000000000200e-12
6.809999999999999609e+00 4.590919999999999991e-12
6.830000000000000071e+00 4.291200000000000133e-12
6.849999999999999645e+00 4.010770000000000287e-12
6.870000000000000107e+00 3.748380000000000230e-12
6.889999999999999680e+00 3.502940000000000016e-12
6.910000000000000142e+00 3.273349999999999982e-12
6.929999999999999716e+00 3.058629999999999863e-12
6.950000000000000178e+00 2.857820000000000035e-12
6.969999999999999751e+00 2.670060000000000035e-12
6.990000000000000213e+00 2.494499999999999923e-12
7.009999999999999787e+00 2.330369999999999894e-12
7.030000000000000249e+00 2.176939999999999810e-12
7.049999999999999822e+00 2.033520000000000003e-12
7.070000000000000284e+00 1.899460000000000067e-12
7.089999999999999858e+00 1.774159999999999985e-12
7.110000000000000320e+00 1.657069999999999926e-12
7.129999999999999893e+00 1.547649999999999974e-12
7.150000000000000355e+00 1.445400000000000081e-12
7.169999999999999929e+00 1.349860000000000066e-12
7.190000000000000391e+00 1.260589999999999983e-12
7.209999999999999964e+00 1.177189999999999955e-12
7.230000000000000426e+00 1.099270000000000020e-12
7.259999999999999787e+00 1.026480000000000085e-12
7.280000000000000249e+00 9.584879999999999443e-13
7.299999999999999822e+00 8.949720000000000158e-13
7.320000000000000284e+00 8.356420000000000051e-13
7.339999999999999858e+00 7.802250000000000404e-13
7.360000000000000320e+00 7.284670000000000099e-13
7.379999999999999893e+00 6.801270000000000362e-13
7.400000000000000355e+00 6.349799999999999863e-13
7.419999999999999929e+00 5.928169999999999770e-13
7.440000000000000391e+00 5.534430000000000279e-13
7.459999999999999964e+00 5.167070000000000115e-13
7.480000000000000426e+00 4.823720000000000372e-13
7.500000000000000000e+00 4.503140000000000136e-13
7.519999999999999574e+00 4.203849999999999803e-13
7.540000000000000036e+00 3.924439999999999785e-13
7.559999999999999609e+00 3.663600000000000161e-13
7.580000000000000071e+00 3.420109999999999954e-13
7.599999999999999645e+00 3.192820000000000223e-13
7.620000000000000107e+00 2.980660000000000246e-13
7.639999999999999680e+00 2.782629999999999827e-13
7.660000000000000142e+00 2.597810000000000015e-13
7.679999999999999716e+00 2.425309999999999992e-13
7.700000000000000178e+00 2.264329999999999905e-13
7.719999999999999751e+00 2.114110000000000016e-13
7.740000000000000213e+00 1.973929999999999951e-13
7.759999999999999787e+00 1.843140000000000111e-13
7.780000000000000249e+00 1.721110000000000075e-13
7.799999999999999822e+00 1.607279999999999943e-13
7.820000000000000284e+00 1.501090000000000069e-13
7.839999999999999858e+00 1.402050000000000069e-13
7.860000000000000320e+00 1.309689999999999996e-13
7.879999999999999893e+00 1.223570000000000056e-13
7.900000000000000355e+00 1.143269999999999883e-13
7.919999999999999929e+00 1.068419999999999955e-13
7.940000000000000391e+00 9.986619999999999759e-14
7.959999999999999964e+00 9.336509999999999614e-14
7.980000000000000426e+00 8.730820000000000455e-14
8.000000000000000000e+00 8.166610000000000227e-14
8.019999999999999574e+00 7.641139999999999993e-14
8.039999999999999147e+00 7.151890000000000336e-14
8.060000000000000497e+00 6.696460000000000428e-14
8.080000000000000071e+00 6.272659999999999497e-14
8.099999999999999645e+00 5.878359999999999854e-14
8.119999999999999218e+00 5.511669999999999728e-14
8.140000000000000568e+00 5.170730000000000147e-14
8.160000000000000142e+00 4.853870000000000122e-14
8.179999999999999716e+00 4.559510000000000127e-14
8.199999999999999289e+00 4.286160000000000212e-14
8.220000000000000639e+00 4.032440000000000183e-14
8.240000000000000213e+00 3.797080000000000240e-14
8.259999999999999787e+00 3.578830000000000135e-14
8.279999999999999361e+00 3.376589999999999752e-14
8.300000000000000711e+00 3.189299999999999976e-14
8.320000000000000284e+00 3.015959999999999727e-14
8.339999999999999858e+00 2.855670000000000114e-14
8.359999999999999432e+00 2.707560000000000001e-14
8.380000000000000782e+00 2.570820000000000071e-14
8.400000000000000355e+00 2.444710000000000079e-14
8.419999999999999929e+00 2.328509999999999966e-14
8.439999999999999503e+00 2.221580000000000100e-14
8.460000000000000853e+00 2.122960000000000087e-14
8.480000000000000426e+00 2.032689999999999983e-14
8.500000000000000000e+00 1.949960000000000155e-14
