# log10(T) rate(cm^3/s)
# RecombRates
3.500000000000000000e+00 7.932829999999999995e-11
3.520000000000000018e+00 7.699529999999999363e-11
3.540000000000000036e+00 7.472759999999999432e-11
3.560000000000000053e+00 7.252359999999999604e-11
3.580000000000000071e+00 7.038149999999999368e-11
3.600000000000000089e+00 6.829969999999999421e-11
3.620000000000000107e+00 6.627640000000000545e-11
3.640000000000000124e+00 6.431019999999999471e-11
3.660000000000000142e+00 6.239940000000000168e-11
3.680000000000000160e+00 6.054250000000000057e-11
3.700000000000000178e+00 5.873820000000000350e-11
3.720000000000000195e+00 5.698479999999999847e-11
3.740000000000000213e+00 5.528120000000000319e-11
3.759999999999999787e+00 5.362579999999999875e-11
3.779999999999999805e+00 5.201739999999999684e-11
3.799999999999999822e+00 5.045480000000000267e-11
3.819999999999999840e+00 4.893660000000000294e-11
3.839999999999999858e+00 4.746160000000000286e-11
3.859999999999999876e+00 4.602870000000000076e-11
3.879999999999999893e+00 4.463670000000000184e-11
3.899999999999999911e+00 4.328439999999999841e-11
3.919999999999999929e+00 4.197090000000000082e-11
3.939999999999999947e+00 4.069490000000000182e-11
3.959999999999999964e+00 3.945559999999999841e-11
3.979999999999999982e+00 3.825190000000000183e-11
4.000000000000000000e+00 3.708269999999999748e-11
4.019999999999999574e+00 3.594730000000000133e-11
4.040000000000000036e+00 3.484449999999999920e-11
4.059999999999999609e+00 3.377360000000000060e-11
4.080000000000000071e+00 3.273359999999999696e-11
4.099999999999999645e+00 3.172369999999999820e-11
4.120000000000000107e+00 3.074310000000000135e-11
4.139999999999999680e+00 2.979089999999999739e-11
4.160000000000000142e+00 2.886629999999999949e-11
4.179999999999999716e+00 2.796870000000000057e-11
4.200000000000000178e+00 2.709720000000000130e-11
4.219999999999999751e+00 2.625120000000000107e-11
4.240000000000000213e+00 2.542980000000000055e-11
4.259999999999999787e+00 2.463249999999999869e-11
4.280000000000000249e+00 2.385859999999999852e-11
4.299999999999999822e+00 2.310730000000000030e-11
4.320000000000000284e+00 2.237809999999999973e-11
4.339999999999999858e+00 2.167039999999999943e-11
4.360000000000000320e+00 2.098349999999999919e-11
4.379999999999999893e+00 2.031700000000000077e-11
4.400000000000000355e+00 1.967010000000000118e-11
4.419999999999999929e+00 1.904239999999999891e-11
4.440000000000000391e+00 1.843329999999999982e-11
4.459999999999999964e+00 1.784229999999999961e-11
4.480000000000000426e+00 1.726890000000000046e-11
4.500000000000000000e+00 1.671249999999999851e-11
4.519999999999999574e+00 1.617280000000000153e-11
4.540000000000000036e+00 1.564929999999999876e-11
4.559999999999999609e+00 1.514139999999999928e-11
4.580000000000000071e+00 1.464880000000000115e-11
4.599999999999999645e+00 1.417100000000000010e-11
4.620000000000000107e+00 1.370759999999999947e-11
4.639999999999999680e+00 1.325809999999999982e-11
4.660000000000000142e+00 1.282230000000000040e-11
4.679999999999999716e+00 1.239970000000000017e-11
4.700000000000000178e+00 1.198989999999999923e-11
4.719999999999999751e+00 1.159249999999999932e-11
4.740000000000000213e+00 1.120729999999999971e-11
4.769999999999999574e+00 1.083379999999999934e-11
4.790000000000000036e+00 1.047169999999999950e-11
4.809999999999999609e+00 1.012079999999999945e-11
4.830000000000000071e+00 9.779779999999999754e-12
4.849999999999999645e+00 9.449200000000000571e-12
4.870000000000000107e+00 9.128680000000000640e-12
4.889999999999999680e+00 8.818430000000000018e-12
4.910000000000000142e+00 8.517619999999999405e-12
4.929999999999999716e+00 8.226090000000000141e-12
4.950000000000000178e+00 7.943619999999999629e-12
4.969999999999999751e+00 7.669990000000000117e-12
4.990000000000000213e+00 7.404949999999999462e-12
5.009999999999999787e+00 7.148250000000000363e-12
5.030000000000000249e+00 6.899649999999999989e-12
5.049999999999999822e+00 6.658910000000000350e-12
5.070000000000000284e+00 6.425790000000000229e-12
5.089999999999999858e+00 6.200080000000000376e-12
5.110000000000000320e+00 5.981679999999999610e-12
5.129999999999999893e+00 5.769929999999999831e-12
5.150000000000000355e+00 5.565160000000000088e-12
5.169999999999999929e+00 5.367090000000000307e-12
5.190000000000000391e+00 5.175509999999999623e-12
5.209999999999999964e+00 4.990279999999999614e-12
5.230000000000000426e+00 4.811279999999999670e-12
5.250000000000000000e+00 4.638470000000000126e-12
5.269999999999999574e+00 4.471829999999999940e-12
5.290000000000000036e+00 4.311409999999999700e-12
5.309999999999999609e+00 4.157330000000000018e-12
5.330000000000000071e+00 4.009769999999999786e-12
5.349999999999999645e+00 3.869030000000000125e-12
5.370000000000000107e+00 3.735479999999999750e-12
5.389999999999999680e+00 3.609629999999999837e-12
5.410000000000000142e+00 3.492159999999999935e-12
5.429999999999999716e+00 3.383879999999999915e-12
5.450000000000000178e+00 3.285799999999999994e-12
5.469999999999999751e+00 3.199129999999999920e-12
5.490000000000000213e+00 3.125319999999999854e-12
5.509999999999999787e+00 3.066040000000000131e-12
5.530000000000000249e+00 3.023180000000000049e-12
5.549999999999999822e+00 2.998870000000000125e-12
5.570000000000000284e+00 2.995410000000000057e-12
5.589999999999999858e+00 3.015290000000000170e-12
5.610000000000000320e+00 3.061059999999999883e-12
5.629999999999999893e+00 3.135320000000000013e-12
5.650000000000000355e+00 3.240590000000000028e-12
5.669999999999999929e+00 3.379240000000000048e-12
5.690000000000000391e+00 3.553350000000000000e-12
5.709999999999999964e+00 3.764829999999999822e-12
5.730000000000000426e+00 4.014209999999999715e-12
5.750000000000000000e+00 4.302719999999999664e-12
5.769999999999999574e+00 4.630490000000000397e-12
5.790000000000000036e+00 4.996480000000000133e-12
5.809999999999999609e+00 5.399150000000000072e-12
5.830000000000000071e+00 5.836240000000000181e-12
5.849999999999999645e+00 6.304699999999999985e-12
5.870000000000000107e+00 6.800929999999999779e-12
5.889999999999999680e+00 7.320230000000000606e-12
5.910000000000000142e+00 7.857830000000000254e-12
5.929999999999999716e+00 8.408289999999999910e-12
5.950000000000000178e+00 8.965849999999999404e-12
5.969999999999999751e+00 9.524549999999999437e-12
5.990000000000000213e+00 1.007839999999999955e-11
6.009999999999999787e+00 1.062139999999999996e-11
6.030000000000000249e+00 1.114779999999999982e-11
6.049999999999999822e+00 1.165210000000000040e-11
6.070000000000000284e+00 1.212929999999999922e-11
6.089999999999999858e+00 1.257459999999999935e-11
6.110000000000000320e+00 1.298389999999999923e-11
6.129999999999999893e+00 1.335399999999999985e-11
6.150000000000000355e+00 1.368189999999999969e-11
6.169999999999999929e+00 1.396540000000000025e-11
6.190000000000000391e+00 1.420299999999999996e-11
6.209999999999999964e+00 1.439369999999999995e-11
6.230000000000000426e+00 1.453719999999999989e-11
6.250000000000000000e+00 1.463369999999999893e-11
6.269999999999999574e+00 1.468390000000000047e-11
6.290000000000000036e+00 1.468910000000000049e-11
6.309999999999999609e+00 1.465079999999999892e-11
6.330000000000000071e+00 1.457109999999999958e-11
6.349999999999999645e+00 1.445209999999999978e-11
6.370000000000000107e+00 1.429650000000000073e-11
6.389999999999999680e+00 1.410679999999999963e-11
6.410000000000000142e+00 1.388590000000000003e-11
6.429999999999999716e+00 1.363670000000000065e-11
6.450000000000000178e+00 1.336210000000000018e-11
6.469999999999999751e+00 1.306510000000000014e-11
6.490000000000000213e+00 1.274859999999999921e-11
6.509999999999999787e+00 1.241530000000000022e-11
6.530000000000000249e+00 1.206800000000000068e-11
6.549999999999999822e+00 1.170930000000000060e-11
6.570000000000000284e+00 1.134180000000000000e-11
6.589999999999999858e+00 1.096759999999999943e-11
6.610000000000000320e+00 1.058909999999999978e-11
6.629999999999999893e+00 1.020830000000000044e-11
6.650000000000000355e+00 9.826970000000000485e-12
6.669999999999999929e+00 9.446840000000000165e-12
6.690000000000000391e+00 9.069429999999999655e-12
6.709999999999999964e+00 8.695750000000000383e-12
6.730000000000000426e+00 8.327709999999999863e-12
6.750000000000000000e+00 7.966019999999999210e-12
6.769999999999999574e+00 7.611590000000000285e-12
6.790000000000000036e+00 7.265260000000000084e-12
6.809999999999999609e+00 6.927720000000000292e-12
6.830000000000000071e+00 6.599510000000000018e-12
6.849999999999999645e+00 6.281069999999999610e-12
6.870000000000000107e+00 5.972729999999999734e-12
6.889999999999999680e+00 5.674779999999999777e-12
6.910000000000000142e+00 5.387380000000000012e-12
6.929999999999999716e+00 5.110609999999999768e-12
6.950000000000000178e+00 4.844500000000000209e-12
6.969999999999999751e+00 4.589039999999999599e-12
6.990000000000000213e+00 4.344140000000000107e-12
7.009999999999999787e+00 4.109680000000000317e-12
7.030000000000000249e+00 3.885510000000000071e-12
7.049999999999999822e+00 3.671420000000000122e-12
7.070000000000000284e+00 3.467189999999999891e-12
7.089999999999999858e+00 3.272570000000000060e-12
7.110000000000000320e+00 3.087350000000000168e-12
7.129999999999999893e+00 2.911170000000000004e-12
7.150000000000000355e+00 2.743770000000000132e-12
7.169999999999999929e+00 2.584859999999999954e-12
7.190000000000000391e+00 2.434129999999999848e-12
7.209999999999999964e+00 2.291260000000000074e-12
7.230000000000000426e+00 2.155949999999999916e-12
7.259999999999999787e+00 2.027880000000000039e-12
7.280000000000000249e+00 1.906759999999999844e-12
7.299999999999999822e+00 1.792269999999999996e-12
7.320000000000000284e+00 1.684109999999999980e-12
7.339999999999999858e+00 1.581999999999999923e-12
7.360000000000000320e+00 1.485650000000000036e-12
7.379999999999999893e+00 1.394769999999999922e-12
7.400000000000000355e+00 1.309110000000000063e-12
7.419999999999999929e+00 1.228389999999999979e-12
7.440000000000000391e+00 1.152379999999999983e-12
7.459999999999999964e+00 1.080809999999999915e-12
7.480000000000000426e+00 1.013460000000000005e-12
7.500000000000000000e+00 9.501120000000000212e-13
7.519999999999999574e+00 8.905410000000000320e-13
7.540000000000000036e+00 8.345420000000000401e-13
7.559999999999999609e+00 7.819180000000000212e-13
7.580000000000000071e+00 7.324840000000000119e-13
7.599999999999999645e+00 6.860569999999999917e-13
7.620000000000000107e+00 6.424699999999999877e-13
7.639999999999999680e+00 6.015569999999999984e-13
7.660000000000000142e+00 5.631669999999999974e-13
7.679999999999999716e+00 5.271519999999999736e-13
7.700000000000000178e+00 4.933750000000000056e-13
7.719999999999999751e+00 4.617439999999999962e-13
7.740000000000000213e+00 4.320539999999999986e-13
7.759999999999999787e+00 4.042310000000000069e-13
7.780000000000000249e+00 3.781640000000000131e-13
7.799999999999999822e+00 3.537470000000000173e-13
7.820000000000000284e+00 3.308819999999999930e-13
7.839999999999999858e+00 3.094710000000000149e-13
7.860000000000000320e+00 2.894289999999999878e-13
7.879999999999999893e+00 2.706689999999999749e-13
7.900000000000000355e+00 2.531129999999999838e-13
7.919999999999999929e+00 2.366870000000000092e-13
7.940000000000000391e+00 2.213220000000000035e-13
7.959999999999999964e+00 2.069499999999999916e-13
7.980000000000000426e+00 1.935100000000000004e-13
8.000000000000000000e+00 1.809459999999999895e-13
8.019999999999999574e+00 1.692000000000000010e-13
8.039999999999999147e+00 1.582239999999999930e-13
8.060000000000000497e+00 1.479680000000000062e-13
8.080000000000000071e+00 1.383880000000000107e-13
8.099999999999999645e+00 1.294400000000000018e-13
8.119999999999999218e+00 1.210860000000000053e-13
8.140000000000000568e+00 1.132869999999999998e-13
8.160000000000000142e+00 1.060099999999999946e-13
8.179999999999999716e+00 9.921980000000000349e-14
8.199999999999999289e+00 9.288710000000000060e-14
8.220000000000000639e+00 8.698259999999999784e-14
8.240000000000000213e+00 8.147929999999999694e-14
8.259999999999999787e+00 7.635119999999999631e-14
8.279999999999999361e+00 7.157500000000000046e-14
8.300000000000000711e+00 6.712769999999999780e-14
8.320000000000000284e+00 6.298869999999999897e-14
8.339999999999999858e+00 5.913830000000000409e-14
8.359999999999999432e+00 5.555799999999999914e-14
8.380000000000000782e+00 5.223060000000000112e-14
8.400000000000000355e+00 4.913999999999999938e-14
8.419999999999999929e+00 4.627070000000000145e-14
8.439999999999999503e+00 4.360879999999999817e-14
8.460000000000000853e+00 4.114070000000000210e-14
8.480000000000000426e+00 3.885410000000000001e-14
8.500000000000000000e+00 3.673720000000000223e-14
