# log10(T) rate(cm^3/s)
# RecombRates
3.500000000000000000e+00 5.922399999999999887e-11
3.520000000000000018e+00 5.747330000000000149e-11
3.540000000000000036e+00 5.577179999999999708e-11
3.560000000000000053e+00 5.411829999999999731e-11
3.580000000000000071e+00 5.251130000000000224e-11
3.600000000000000089e+00 5.094969999999999726e-11
3.620000000000000107e+00 4.943230000000000051e-11
3.640000000000000124e+00 4.795769999999999870e-11
3.660000000000000142e+00 4.652500000000000219e-11
3.680000000000000160e+00 4.513279999999999768e-11
3.700000000000000178e+00 4.378010000000000245e-11
3.720000000000000195e+00 4.246590000000000144e-11
3.740000000000000213e+00 4.118899999999999988e-11
3.759999999999999787e+00 3.994850000000000169e-11
3.779999999999999805e+00 3.874329999999999870e-11
3.799999999999999822e+00 3.757260000000000088e-11
3.819999999999999840e+00 3.643520000000000049e-11
3.839999999999999858e+00 3.533040000000000059e-11
3.859999999999999876e+00 3.425729999999999863e-11
3.879999999999999893e+00 3.321489999999999896e-11
3.899999999999999911e+00 3.220239999999999857e-11
3.919999999999999929e+00 3.121910000000000053e-11
3.939999999999999947e+00 3.026400000000000271e-11
3.959999999999999964e+00 2.933650000000000126e-11
3.979999999999999982e+00 2.843579999999999966e-11
4.000000000000000000e+00 2.756110000000000138e-11
4.019999999999999574e+00 2.671199999999999846e-11
4.040000000000000036e+00 2.588780000000000042e-11
4.059999999999999609e+00 2.508829999999999842e-11
4.080000000000000071e+00 2.431320000000000024e-11
4.099999999999999645e+00 2.356290000000000091e-11
4.120000000000000107e+00 2.283810000000000060e-11
4.139999999999999680e+00 2.214070000000000077e-11
4.160000000000000142e+00 2.147359999999999849e-11
4.179999999999999716e+00 2.084120000000000050e-11
4.200000000000000178e+00 2.025020000000000029e-11
4.219999999999999751e+00 1.971009999999999858e-11
4.240000000000000213e+00 1.923360000000000157e-11
4.259999999999999787e+00 1.883760000000000043e-11
4.280000000000000249e+00 1.854320000000000039e-11
4.299999999999999822e+00 1.837689999999999937e-11
4.320000000000000284e+00 1.837029999999999898e-11
4.339999999999999858e+00 1.856020000000000083e-11
4.360000000000000320e+00 1.898850000000000053e-11
4.379999999999999893e+00 1.970140000000000085e-11
4.400000000000000355e+00 2.074820000000000079e-11
4.419999999999999929e+00 2.218029999999999991e-11
4.440000000000000391e+00 2.404930000000000013e-11
4.459999999999999964e+00 2.640489999999999869e-11
4.480000000000000426e+00 2.929300000000000291e-11
4.500000000000000000e+00 3.275350000000000094e-11
4.519999999999999574e+00 3.681820000000000320e-11
4.540000000000000036e+00 4.150869999999999982e-11
4.559999999999999609e+00 4.683519999999999818e-11
4.580000000000000071e+00 5.279449999999999925e-11
4.599999999999999645e+00 5.937050000000000193e-11
4.620000000000000107e+00 6.653220000000000523e-11
4.639999999999999680e+00 7.423549999999999402e-11
4.660000000000000142e+00 8.242339999999999632e-11
4.679999999999999716e+00 9.102650000000000356e-11
4.700000000000000178e+00 9.996460000000000240e-11
4.719999999999999751e+00 1.091510000000000013e-10
4.740000000000000213e+00 1.184910000000000047e-10
4.769999999999999574e+00 1.278870000000000103e-10
4.790000000000000036e+00 1.372390000000000004e-10
4.809999999999999609e+00 1.464489999999999872e-10
4.830000000000000071e+00 1.554190000000000089e-10
4.849999999999999645e+00 1.640589999999999915e-10
4.870000000000000107e+00 1.722819999999999899e-10
4.889999999999999680e+00 1.800109999999999898e-10
4.910000000000000142e+00 1.871790000000000109e-10
4.929999999999999716e+00 1.937260000000000039e-10
4.950000000000000178e+00 1.996050000000000050e-10
4.969999999999999751e+00 2.047779999999999984e-10
4.990000000000000213e+00 2.092189999999999938e-10
5.009999999999999787e+00 2.129099999999999917e-10
5.030000000000000249e+00 2.158460000000000010e-10
5.049999999999999822e+00 2.180310000000000043e-10
5.070000000000000284e+00 2.194750000000000098e-10
5.089999999999999858e+00 2.201980000000000083e-10
5.110000000000000320e+00 2.202250000000000072e-10
5.129999999999999893e+00 2.195890000000000055e-10
5.150000000000000355e+00 2.183260000000000017e-10
5.169999999999999929e+00 2.164760000000000029e-10
5.190000000000000391e+00 2.140819999999999903e-10
5.209999999999999964e+00 2.111889999999999880e-10
5.230000000000000426e+00 2.078419999999999943e-10
5.250000000000000000e+00 2.040899999999999901e-10
5.269999999999999574e+00 1.999760000000000082e-10
5.290000000000000036e+00 1.955479999999999952e-10
5.309999999999999609e+00 1.908480000000000010e-10
5.330000000000000071e+00 1.859190000000000070e-10
5.349999999999999645e+00 1.808009999999999943e-10
5.370000000000000107e+00 1.755320000000000045e-10
5.389999999999999680e+00 1.701470000000000019e-10
5.410000000000000142e+00 1.646799999999999938e-10
5.429999999999999716e+00 1.591610000000000049e-10
5.450000000000000178e+00 1.536170000000000083e-10
5.469999999999999751e+00 1.480739999999999945e-10
5.490000000000000213e+00 1.425539999999999970e-10
5.509999999999999787e+00 1.370779999999999892e-10
5.530000000000000249e+00 1.316639999999999964e-10
5.549999999999999822e+00 1.263269999999999919e-10
5.570000000000000284e+00 1.210820000000000013e-10
5.589999999999999858e+00 1.159400000000000024e-10
5.610000000000000320e+00 1.109110000000000035e-10
5.629999999999999893e+00 1.060029999999999957e-10
5.650000000000000355e+00 1.012250000000000046e-10
5.669999999999999929e+00 9.658150000000000402e-11
5.690000000000000391e+00 9.207650000000000252e-11
5.709999999999999964e+00 8.771350000000000425e-11
5.730000000000000426e+00 8.349500000000000480e-11
5.750000000000000000e+00 7.942210000000000587e-11
5.769999999999999574e+00 7.549540000000000484e-11
5.790000000000000036e+00 7.171510000000000085e-11
5.809999999999999609e+00 6.807990000000000600e-11
5.830000000000000071e+00 6.458859999999999966e-11
5.849999999999999645e+00 6.123940000000000258e-11
5.870000000000000107e+00 5.803019999999999804e-11
5.889999999999999680e+00 5.495829999999999777e-11
5.910000000000000142e+00 5.202060000000000232e-11
5.929999999999999716e+00 4.921409999999999888e-11
5.950000000000000178e+00 4.653550000000000179e-11
5.969999999999999751e+00 4.398100000000000172e-11
5.990000000000000213e+00 4.154680000000000226e-11
6.009999999999999787e+00 3.922959999999999836e-11
6.030000000000000249e+00 3.702510000000000225e-11
6.049999999999999822e+00 3.492959999999999770e-11
6.070000000000000284e+00 3.293900000000000252e-11
6.089999999999999858e+00 3.104950000000000093e-11
6.110000000000000320e+00 2.925709999999999738e-11
6.129999999999999893e+00 2.755799999999999869e-11
6.150000000000000355e+00 2.594819999999999964e-11
6.169999999999999929e+00 2.442400000000000013e-11
6.190000000000000391e+00 2.298160000000000054e-11
6.209999999999999964e+00 2.161759999999999949e-11
6.230000000000000426e+00 2.032810000000000100e-11
6.250000000000000000e+00 1.910980000000000002e-11
6.269999999999999574e+00 1.795950000000000077e-11
6.290000000000000036e+00 1.687369999999999908e-11
6.309999999999999609e+00 1.584929999999999871e-11
6.330000000000000071e+00 1.488329999999999980e-11
6.349999999999999645e+00 1.397269999999999922e-11
6.370000000000000107e+00 1.311480000000000062e-11
6.389999999999999680e+00 1.230670000000000046e-11
6.410000000000000142e+00 1.154589999999999991e-11
6.429999999999999716e+00 1.082990000000000013e-11
6.450000000000000178e+00 1.015620000000000069e-11
6.469999999999999751e+00 9.522660000000000542e-12
6.490000000000000213e+00 8.926970000000000685e-12
6.509999999999999787e+00 8.367060000000000095e-12
6.530000000000000249e+00 7.840940000000000313e-12
6.549999999999999822e+00 7.346709999999999904e-12
6.570000000000000284e+00 6.882589999999999656e-12
6.589999999999999858e+00 6.446520000000000283e-12
6.610000000000000320e+00 6.037460000000000004e-12
6.629999999999999893e+00 5.653530000000000044e-12
6.650000000000000355e+00 5.293340000000000142e-12
6.669999999999999929e+00 4.955450000000000256e-12
6.690000000000000391e+00 4.638560000000000381e-12
6.709999999999999964e+00 4.341449999999999843e-12
6.730000000000000426e+00 4.062940000000000053e-12
6.750000000000000000e+00 3.801909999999999902e-12
6.769999999999999574e+00 3.557300000000000200e-12
6.790000000000000036e+00 3.328080000000000093e-12
6.809999999999999609e+00 3.113379999999999806e-12
6.830000000000000071e+00 2.912280000000000188e-12
6.849999999999999645e+00 2.723930000000000087e-12
6.870000000000000107e+00 2.547560000000000102e-12
6.889999999999999680e+00 2.382429999999999977e-12
6.910000000000000142e+00 2.227839999999999926e-12
6.929999999999999716e+00 2.083129999999999829e-12
6.950000000000000178e+00 1.947680000000000037e-12
6.969999999999999751e+00 1.820929999999999997e-12
6.990000000000000213e+00 1.702349999999999910e-12
7.009999999999999787e+00 1.591369999999999913e-12
7.030000000000000249e+00 1.487550000000000058e-12
7.049999999999999822e+00 1.390429999999999963e-12
7.070000000000000284e+00 1.299589999999999918e-12
7.089999999999999858e+00 1.214619999999999928e-12
7.110000000000000320e+00 1.135159999999999982e-12
7.129999999999999893e+00 1.060850000000000069e-12
7.150000000000000355e+00 9.913669999999999297e-13
7.169999999999999929e+00 9.263970000000000561e-13
7.190000000000000391e+00 8.656550000000000106e-13
7.209999999999999964e+00 8.088659999999999786e-13
7.230000000000000426e+00 7.557760000000000504e-13
7.259999999999999787e+00 7.061469999999999596e-13
7.280000000000000249e+00 6.597569999999999927e-13
7.299999999999999822e+00 6.163959999999999920e-13
7.320000000000000284e+00 5.758670000000000341e-13
7.339999999999999858e+00 5.379860000000000262e-13
7.360000000000000320e+00 5.025839999999999515e-13
7.379999999999999893e+00 4.694989999999999970e-13
7.400000000000000355e+00 4.385790000000000137e-13
7.419999999999999929e+00 4.096849999999999855e-13
7.440000000000000391e+00 3.826849999999999996e-13
7.459999999999999964e+00 3.574550000000000152e-13
7.480000000000000426e+00 3.338799999999999869e-13
7.500000000000000000e+00 3.118529999999999940e-13
7.519999999999999574e+00 2.912720000000000235e-13
7.540000000000000036e+00 2.720440000000000069e-13
7.559999999999999609e+00 2.540789999999999920e-13
7.580000000000000071e+00 2.372960000000000220e-13
7.599999999999999645e+00 2.216540000000000065e-13
7.620000000000000107e+00 2.070089999999999967e-13
7.639999999999999680e+00 1.933330000000000104e-13
7.660000000000000142e+00 1.805630000000000052e-13
7.679999999999999716e+00 1.686390000000000047e-13
7.700000000000000178e+00 1.575080000000000090e-13
7.719999999999999751e+00 1.471159999999999963e-13
7.740000000000000213e+00 1.374159999999999973e-13
7.759999999999999787e+00 1.283609999999999919e-13
7.780000000000000249e+00 1.199099999999999909e-13
7.799999999999999822e+00 1.120230000000000014e-13
7.820000000000000284e+00 1.046629999999999954e-13
7.839999999999999858e+00 9.779570000000000151e-14
7.860000000000000320e+00 9.138919999999999494e-14
7.879999999999999893e+00 8.541329999999999815e-14
7.900000000000000355e+00 7.984039999999999471e-14
7.919999999999999929e+00 7.464410000000000452e-14
7.940000000000000391e+00 6.980020000000000484e-14
7.959999999999999964e+00 6.528589999999999851e-14
7.980000000000000426e+00 6.108000000000000328e-14
8.000000000000000000e+00 5.716260000000000474e-14
8.019999999999999574e+00 5.351499999999999967e-14
8.039999999999999147e+00 5.012020000000000059e-14
8.060000000000000497e+00 4.696169999999999946e-14
8.080000000000000071e+00 4.402450000000000214e-14
8.099999999999999645e+00 4.129420000000000114e-14
8.119999999999999218e+00 3.875780000000000197e-14
8.140000000000000568e+00 3.640260000000000031e-14
8.160000000000000142e+00 3.421700000000000203e-14
8.179999999999999716e+00 3.219020000000000151e-14
8.199999999999999289e+00 3.031209999999999965e-14
8.220000000000000639e+00 2.857310000000000196e-14
8.240000000000000213e+00 2.696430000000000154e-14
8.259999999999999787e+00 2.547740000000000019e-14
8.279999999999999361e+00 2.410450000000000031e-14
8.300000000000000711e+00 2.283830000000000036e-14
8.320000000000000284e+00 2.167200000000000032e-14
8.339999999999999858e+00 2.059909999999999979e-14
8.359999999999999432e+00 1.961370000000000078e-14
8.380000000000000782e+00 1.871019999999999862e-14
8.400000000000000355e+00 1.788339999999999868e-14
8.419999999999999929e+00 1.712809999999999999e-14
8.439999999999999503e+00 1.644000000000000050e-14
8.460000000000000853e+00 1.581449999999999852e-14
8.480000000000000426e+00 1.524779999999999979e-14
8.500000000000000000e+00 1.473580000000000094e-14
