# log10(T) rate(cm^3/s)
# RecombRates
3.500000000000000000e+00 4.045500000000000144e-10
3.520000000000000018e+00 3.932039999999999793e-10
3.540000000000000036e+00 3.821670000000000101e-10
3.560000000000000053e+00 3.714290000000000209e-10
3.580000000000000071e+00 3.609830000000000034e-10
3.600000000000000089e+00 3.508209999999999924e-10
3.620000000000000107e+00 3.409350000000000226e-10
3.640000000000000124e+00 3.313189999999999909e-10
3.660000000000000142e+00 3.219639999999999751e-10
3.680000000000000160e+00 3.128639999999999755e-10
3.700000000000000178e+00 3.040119999999999837e-10
3.720000000000000195e+00 2.954020000000000000e-10
3.740000000000000213e+00 2.870270000000000160e-10
3.759999999999999787e+00 2.788809999999999803e-10
3.779999999999999805e+00 2.709579999999999963e-10
3.799999999999999822e+00 2.632520000000000128e-10
3.819999999999999840e+00 2.557569999999999782e-10
3.839999999999999858e+00 2.484669999999999962e-10
3.859999999999999876e+00 2.413779999999999806e-10
3.879999999999999893e+00 2.344829999999999750e-10
3.899999999999999911e+00 2.277769999999999880e-10
3.919999999999999929e+00 2.212560000000000112e-10
3.939999999999999947e+00 2.149150000000000018e-10
3.959999999999999964e+00 2.087480000000000116e-10
3.979999999999999982e+00 2.027510000000000064e-10
4.000000000000000000e+00 1.969200000000000034e-10
4.019999999999999574e+00 1.912490000000000031e-10
4.040000000000000036e+00 1.857350000000000054e-10
4.059999999999999609e+00 1.803740000000000019e-10
4.080000000000000071e+00 1.751620000000000099e-10
4.099999999999999645e+00 1.700930000000000040e-10
4.120000000000000107e+00 1.651649999999999926e-10
4.139999999999999680e+00 1.603739999999999934e-10
4.160000000000000142e+00 1.557170000000000062e-10
4.179999999999999716e+00 1.511880000000000057e-10
4.200000000000000178e+00 1.467860000000000089e-10
4.219999999999999751e+00 1.425059999999999988e-10
4.240000000000000213e+00 1.383460000000000101e-10
4.259999999999999787e+00 1.343009999999999998e-10
4.280000000000000249e+00 1.303700000000000110e-10
4.299999999999999822e+00 1.265480000000000008e-10
4.320000000000000284e+00 1.228340000000000124e-10
4.339999999999999858e+00 1.192230000000000028e-10
4.360000000000000320e+00 1.157140000000000023e-10
4.379999999999999893e+00 1.123030000000000024e-10
4.400000000000000355e+00 1.089879999999999989e-10
4.419999999999999929e+00 1.057660000000000047e-10
4.440000000000000391e+00 1.026350000000000028e-10
4.459999999999999964e+00 9.959229999999999842e-11
4.480000000000000426e+00 9.663519999999999682e-11
4.500000000000000000e+00 9.376169999999999376e-11
4.519999999999999574e+00 9.096929999999999367e-11
4.540000000000000036e+00 8.825589999999999919e-11
4.559999999999999609e+00 8.561929999999999405e-11
4.580000000000000071e+00 8.305760000000000588e-11
4.599999999999999645e+00 8.056849999999999945e-11
4.620000000000000107e+00 7.815019999999999551e-11
4.639999999999999680e+00 7.580059999999999672e-11
4.660000000000000142e+00 7.351789999999999797e-11
4.679999999999999716e+00 7.130029999999999417e-11
4.700000000000000178e+00 6.914600000000000607e-11
4.719999999999999751e+00 6.705329999999999581e-11
4.740000000000000213e+00 6.502039999999999707e-11
4.769999999999999574e+00 6.304570000000000388e-11
4.790000000000000036e+00 6.112770000000000337e-11
4.809999999999999609e+00 5.926480000000000249e-11
4.830000000000000071e+00 5.745530000000000217e-11
4.849999999999999645e+00 5.569800000000000117e-11
4.870000000000000107e+00 5.399129999999999997e-11
4.889999999999999680e+00 5.233379999999999820e-11
4.910000000000000142e+00 5.072420000000000150e-11
4.929999999999999716e+00 4.916120000000000261e-11
4.950000000000000178e+00 4.764340000000000114e-11
4.969999999999999751e+00 4.616970000000000188e-11
4.990000000000000213e+00 4.473869999999999798e-11
5.009999999999999787e+00 4.334940000000000025e-11
5.030000000000000249e+00 4.200050000000000143e-11
5.049999999999999822e+00 4.069089999999999982e-11
5.070000000000000284e+00 3.941959999999999977e-11
5.089999999999999858e+00 3.818540000000000004e-11
5.110000000000000320e+00 3.698739999999999808e-11
5.129999999999999893e+00 3.582449999999999866e-11
5.150000000000000355e+00 3.469579999999999924e-11
5.169999999999999929e+00 3.360029999999999770e-11
5.190000000000000391e+00 3.253699999999999838e-11
5.209999999999999964e+00 3.150509999999999830e-11
5.230000000000000426e+00 3.050370000000000138e-11
5.250000000000000000e+00 2.953189999999999859e-11
5.269999999999999574e+00 2.858889999999999989e-11
5.290000000000000036e+00 2.767389999999999904e-11
5.309999999999999609e+00 2.678619999999999910e-11
5.330000000000000071e+00 2.592480000000000117e-11
5.349999999999999645e+00 2.508920000000000098e-11
5.370000000000000107e+00 2.427849999999999919e-11
5.389999999999999680e+00 2.349209999999999842e-11
5.410000000000000142e+00 2.272929999999999848e-11
5.429999999999999716e+00 2.198820000000000116e-11
5.450000000000000178e+00 2.126940000000000063e-11
5.469999999999999751e+00 2.057229999999999949e-11
5.490000000000000213e+00 1.989620000000000079e-11
5.509999999999999787e+00 1.924060000000000023e-11
5.530000000000000249e+00 1.860490000000000042e-11
5.549999999999999822e+00 1.798840000000000118e-11
5.570000000000000284e+00 1.739080000000000058e-11
5.589999999999999858e+00 1.681129999999999886e-11
5.610000000000000320e+00 1.624960000000000055e-11
5.629999999999999893e+00 1.570499999999999902e-11
5.650000000000000355e+00 1.517709999999999922e-11
5.669999999999999929e+00 1.466540000000000009e-11
5.690000000000000391e+00 1.416950000000000016e-11
5.709999999999999964e+00 1.368910000000000071e-11
5.730000000000000426e+00 1.322300000000000050e-11
5.750000000000000000e+00 1.277170000000000060e-11
5.769999999999999574e+00 1.233430000000000006e-11
5.790000000000000036e+00 1.191059999999999976e-11
5.809999999999999609e+00 1.150010000000000024e-11
5.830000000000000071e+00 1.110240000000000003e-11
5.849999999999999645e+00 1.071709999999999924e-11
5.870000000000000107e+00 1.034390000000000079e-11
5.889999999999999680e+00 9.982420000000000191e-12
5.910000000000000142e+00 9.632369999999999678e-12
5.929999999999999716e+00 9.293389999999999844e-12
5.950000000000000178e+00 8.965160000000000141e-12
5.969999999999999751e+00 8.647380000000000257e-12
5.990000000000000213e+00 8.339729999999999645e-12
6.009999999999999787e+00 8.041909999999999607e-12
6.030000000000000249e+00 7.753649999999999379e-12
6.049999999999999822e+00 7.474670000000000501e-12
6.070000000000000284e+00 7.204670000000000238e-12
6.089999999999999858e+00 6.943419999999999912e-12
6.110000000000000320e+00 6.690640000000000257e-12
6.129999999999999893e+00 6.446079999999999933e-12
6.150000000000000355e+00 6.209510000000000266e-12
6.169999999999999929e+00 5.980690000000000035e-12
6.190000000000000391e+00 5.759389999999999756e-12
6.209999999999999964e+00 5.545400000000000181e-12
6.230000000000000426e+00 5.338480000000000089e-12
6.250000000000000000e+00 5.138439999999999661e-12
6.269999999999999574e+00 4.945089999999999884e-12
6.290000000000000036e+00 4.758219999999999894e-12
6.309999999999999609e+00 4.578010000000000200e-12
6.330000000000000071e+00 4.402989999999999599e-12
6.349999999999999645e+00 4.234430000000000164e-12
6.370000000000000107e+00 4.071869999999999693e-12
6.389999999999999680e+00 3.914990000000000063e-12
6.410000000000000142e+00 3.763609999999999954e-12
6.429999999999999716e+00 3.617590000000000138e-12
6.450000000000000178e+00 3.476850000000000074e-12
6.469999999999999751e+00 3.341339999999999978e-12
6.490000000000000213e+00 3.211050000000000136e-12
6.509999999999999787e+00 3.085980000000000145e-12
6.530000000000000249e+00 2.966149999999999837e-12
6.549999999999999822e+00 2.851589999999999969e-12
6.570000000000000284e+00 2.742370000000000158e-12
6.589999999999999858e+00 2.638560000000000018e-12
6.610000000000000320e+00 2.540229999999999971e-12
6.629999999999999893e+00 2.447460000000000155e-12
6.650000000000000355e+00 2.360359999999999850e-12
6.669999999999999929e+00 2.278990000000000167e-12
6.690000000000000391e+00 2.203410000000000201e-12
6.709999999999999964e+00 2.133549999999999931e-12
6.730000000000000426e+00 2.069610000000000104e-12
6.750000000000000000e+00 2.011479999999999826e-12
6.769999999999999574e+00 1.959089999999999885e-12
6.790000000000000036e+00 1.912330000000000193e-12
6.809999999999999609e+00 1.871019999999999837e-12
6.830000000000000071e+00 1.834930000000000139e-12
6.849999999999999645e+00 1.803789999999999930e-12
6.870000000000000107e+00 1.777260000000000043e-12
6.889999999999999680e+00 1.754960000000000026e-12
6.910000000000000142e+00 1.736480000000000089e-12
6.929999999999999716e+00 1.721349999999999930e-12
6.950000000000000178e+00 1.709109999999999974e-12
6.969999999999999751e+00 1.699259999999999971e-12
6.990000000000000213e+00 1.691289999999999955e-12
7.009999999999999787e+00 1.684730000000000032e-12
7.030000000000000249e+00 1.679070000000000034e-12
7.049999999999999822e+00 1.673860000000000099e-12
7.070000000000000284e+00 1.668649999999999963e-12
7.089999999999999858e+00 1.663039999999999950e-12
7.110000000000000320e+00 1.656670000000000048e-12
7.129999999999999893e+00 1.649200000000000081e-12
7.150000000000000355e+00 1.640370000000000007e-12
7.169999999999999929e+00 1.629929999999999902e-12
7.190000000000000391e+00 1.617709999999999980e-12
7.209999999999999964e+00 1.603549999999999968e-12
7.230000000000000426e+00 1.587380000000000048e-12
7.259999999999999787e+00 1.569120000000000083e-12
7.280000000000000249e+00 1.548779999999999990e-12
7.299999999999999822e+00 1.526370000000000089e-12
7.320000000000000284e+00 1.501199999999999904e-12
7.339999999999999858e+00 1.474720000000000001e-12
7.360000000000000320e+00 1.446300000000000007e-12
7.379999999999999893e+00 1.416140000000000063e-12
7.400000000000000355e+00 1.384400000000000038e-12
7.419999999999999929e+00 1.351280000000000074e-12
7.440000000000000391e+00 1.316929999999999923e-12
7.459999999999999964e+00 1.281530000000000094e-12
7.480000000000000426e+00 1.245249999999999970e-12
7.500000000000000000e+00 1.208239999999999908e-12
7.519999999999999574e+00 1.170680000000000016e-12
7.540000000000000036e+00 1.132720000000000044e-12
7.559999999999999609e+00 1.094520000000000066e-12
7.580000000000000071e+00 1.056230000000000034e-12
7.599999999999999645e+00 1.017980000000000071e-12
7.620000000000000107e+00 9.799160000000000424e-13
7.639999999999999680e+00 9.421530000000000952e-13
7.660000000000000142e+00 9.048070000000000441e-13
7.679999999999999716e+00 8.679769999999999880e-13
7.700000000000000178e+00 8.317580000000000390e-13
7.719999999999999751e+00 7.962609999999999531e-13
7.740000000000000213e+00 7.615019999999999797e-13
7.759999999999999787e+00 7.275679999999999549e-13
7.780000000000000249e+00 6.945140000000000232e-13
7.799999999999999822e+00 6.623810000000000227e-13
7.820000000000000284e+00 6.312050000000000352e-13
7.839999999999999858e+00 6.010109999999999520e-13
7.860000000000000320e+00 5.718199999999999808e-13
7.879999999999999893e+00 5.436420000000000376e-13
7.900000000000000355e+00 5.164859999999999663e-13
7.919999999999999929e+00 4.903509999999999974e-13
7.940000000000000391e+00 4.652340000000000147e-13
7.959999999999999964e+00 4.411250000000000010e-13
7.980000000000000426e+00 4.180150000000000116e-13
8.000000000000000000e+00 3.958860000000000056e-13
8.019999999999999574e+00 3.747190000000000212e-13
8.039999999999999147e+00 3.544960000000000174e-13
8.060000000000000497e+00 3.351920000000000019e-13
8.080000000000000071e+00 3.167849999999999977e-13
8.099999999999999645e+00 2.992459999999999752e-13
8.119999999999999218e+00 2.825510000000000145e-13
8.140000000000000568e+00 2.666700000000000138e-13
8.160000000000000142e+00 2.515770000000000094e-13
8.179999999999999716e+00 2.372420000000000003e-13
8.199999999999999289e+00 2.236389999999999975e-13
8.220000000000000639e+00 2.107370000000000036e-13
8.240000000000000213e+00 1.985100000000000043e-13
8.259999999999999787e+00 1.869279999999999988e-13
8.279999999999999361e+00 1.759669999999999912e-13
8.300000000000000711e+00 1.655960000000000095e-13
8.320000000000000284e+00 1.558760000000000014e-13
8.339999999999999858e+00 1.466150000000000018e-13
8.359999999999999432e+00 1.378789999999999924e-13
8.380000000000000782e+00 1.296430000000000061e-13
8.400000000000000355e+00 1.218839999999999934e-13
8.419999999999999929e+00 1.145770000000000125e-13
8.439999999999999503e+00 1.077009999999999947e-13
8.460000000000000853e+00 1.012319999999999947e-13
8.480000000000000426e+00 9.514939999999999794e-14
8.500000000000000000e+00 8.943339999999999735e-14
