# log10(T) rate(cm^3/s)
# RecombRates
3.500000000000000000e+00 6.312149999999999756e-10
3.520000000000000018e+00 6.141290000000000203e-10
3.540000000000000036e+00 5.974950000000000134e-10
3.560000000000000053e+00 5.813009999999999554e-10
3.580000000000000071e+00 5.655359999999999587e-10
3.600000000000000089e+00 5.501880000000000237e-10
3.620000000000000107e+00 5.352459999999999526e-10
3.640000000000000124e+00 5.207009999999999786e-10
3.660000000000000142e+00 5.065420000000000071e-10
3.680000000000000160e+00 4.927580000000000473e-10
3.700000000000000178e+00 4.793400000000000218e-10
3.720000000000000195e+00 4.662779999999999484e-10
3.740000000000000213e+00 4.535640000000000170e-10
3.759999999999999787e+00 4.411879999999999865e-10
3.779999999999999805e+00 4.291409999999999866e-10
3.799999999999999822e+00 4.174150000000000004e-10
3.819999999999999840e+00 4.060010000000000024e-10
3.839999999999999858e+00 3.948909999999999757e-10
3.859999999999999876e+00 3.840770000000000066e-10
3.879999999999999893e+00 3.735519999999999835e-10
3.899999999999999911e+00 3.633069999999999842e-10
3.919999999999999929e+00 3.533370000000000176e-10
3.939999999999999947e+00 3.436319999999999979e-10
3.959999999999999964e+00 3.341879999999999941e-10
3.979999999999999982e+00 3.249950000000000239e-10
4.000000000000000000e+00 3.160490000000000012e-10
4.019999999999999574e+00 3.073430000000000211e-10
4.040000000000000036e+00 2.988690000000000150e-10
4.059999999999999609e+00 2.906230000000000003e-10
4.080000000000000071e+00 2.825980000000000203e-10
4.099999999999999645e+00 2.747889999999999803e-10
4.120000000000000107e+00 2.671889999999999755e-10
4.139999999999999680e+00 2.597940000000000233e-10
4.160000000000000142e+00 2.525970000000000119e-10
4.179999999999999716e+00 2.455940000000000103e-10
4.200000000000000178e+00 2.387799999999999757e-10
4.219999999999999751e+00 2.321490000000000118e-10
4.240000000000000213e+00 2.256970000000000065e-10
4.259999999999999787e+00 2.194189999999999947e-10
4.280000000000000249e+00 2.133100000000000110e-10
4.299999999999999822e+00 2.073670000000000037e-10
4.320000000000000284e+00 2.015839999999999989e-10
4.339999999999999858e+00 1.959569999999999883e-10
4.360000000000000320e+00 1.904829999999999977e-10
4.379999999999999893e+00 1.851570000000000100e-10
4.400000000000000355e+00 1.799749999999999911e-10
4.419999999999999929e+00 1.749339999999999927e-10
4.440000000000000391e+00 1.700300000000000063e-10
4.459999999999999964e+00 1.652579999999999891e-10
4.480000000000000426e+00 1.606170000000000100e-10
4.500000000000000000e+00 1.561009999999999917e-10
4.519999999999999574e+00 1.517090000000000031e-10
4.540000000000000036e+00 1.474360000000000014e-10
4.559999999999999609e+00 1.432790000000000126e-10
4.580000000000000071e+00 1.392359999999999936e-10
4.599999999999999645e+00 1.353029999999999876e-10
4.620000000000000107e+00 1.314769999999999948e-10
4.639999999999999680e+00 1.277559999999999981e-10
4.660000000000000142e+00 1.241369999999999974e-10
4.679999999999999716e+00 1.206160000000000103e-10
4.700000000000000178e+00 1.171920000000000023e-10
4.719999999999999751e+00 1.138619999999999993e-10
4.740000000000000213e+00 1.106239999999999971e-10
4.769999999999999574e+00 1.074740000000000003e-10
4.790000000000000036e+00 1.044100000000000044e-10
4.809999999999999609e+00 1.014310000000000011e-10
4.830000000000000071e+00 9.853400000000000323e-11
4.849999999999999645e+00 9.571650000000000236e-11
4.870000000000000107e+00 9.297670000000000630e-11
4.889999999999999680e+00 9.031239999999999876e-11
4.910000000000000142e+00 8.772160000000000136e-11
4.929999999999999716e+00 8.520229999999999693e-11
4.950000000000000178e+00 8.275279999999999934e-11
4.969999999999999751e+00 8.037090000000000522e-11
4.990000000000000213e+00 7.805499999999999567e-11
5.009999999999999787e+00 7.580330000000000437e-11
5.030000000000000249e+00 7.361400000000000036e-11
5.049999999999999822e+00 7.148550000000000352e-11
5.070000000000000284e+00 6.941599999999999583e-11
5.089999999999999858e+00 6.740409999999999629e-11
5.110000000000000320e+00 6.544819999999999894e-11
5.129999999999999893e+00 6.354680000000000383e-11
5.150000000000000355e+00 6.169839999999999810e-11
5.169999999999999929e+00 5.990149999999999472e-11
5.190000000000000391e+00 5.815479999999999935e-11
5.209999999999999964e+00 5.645699999999999824e-11
5.230000000000000426e+00 5.480659999999999792e-11
5.250000000000000000e+00 5.320250000000000317e-11
5.269999999999999574e+00 5.164330000000000069e-11
5.290000000000000036e+00 5.012780000000000215e-11
5.309999999999999609e+00 4.865489999999999940e-11
5.330000000000000071e+00 4.722339999999999768e-11
5.349999999999999645e+00 4.583220000000000175e-11
5.370000000000000107e+00 4.448009999999999744e-11
5.389999999999999680e+00 4.316620000000000160e-11
5.410000000000000142e+00 4.188930000000000004e-11
5.429999999999999716e+00 4.064850000000000315e-11
5.450000000000000178e+00 3.944280000000000234e-11
5.469999999999999751e+00 3.827120000000000196e-11
5.490000000000000213e+00 3.713279999999999946e-11
5.509999999999999787e+00 3.602659999999999918e-11
5.530000000000000249e+00 3.495189999999999771e-11
5.549999999999999822e+00 3.390769999999999940e-11
5.570000000000000284e+00 3.289320000000000125e-11
5.589999999999999858e+00 3.190769999999999984e-11
5.610000000000000320e+00 3.095019999999999953e-11
5.629999999999999893e+00 3.001999999999999689e-11
5.650000000000000355e+00 2.911640000000000142e-11
5.669999999999999929e+00 2.823870000000000003e-11
5.690000000000000391e+00 2.738609999999999940e-11
5.709999999999999964e+00 2.655789999999999935e-11
5.730000000000000426e+00 2.575349999999999927e-11
5.750000000000000000e+00 2.497229999999999851e-11
5.769999999999999574e+00 2.421350000000000058e-11
5.790000000000000036e+00 2.347650000000000160e-11
5.809999999999999609e+00 2.276080000000000052e-11
5.830000000000000071e+00 2.206579999999999994e-11
5.849999999999999645e+00 2.139079999999999969e-11
5.870000000000000107e+00 2.073540000000000149e-11
5.889999999999999680e+00 2.009900000000000150e-11
5.910000000000000142e+00 1.948109999999999865e-11
5.929999999999999716e+00 1.888109999999999878e-11
5.950000000000000178e+00 1.829850000000000084e-11
5.969999999999999751e+00 1.773290000000000010e-11
5.990000000000000213e+00 1.718379999999999873e-11
6.009999999999999787e+00 1.665079999999999848e-11
6.030000000000000249e+00 1.613329999999999872e-11
6.049999999999999822e+00 1.563100000000000075e-11
6.070000000000000284e+00 1.514340000000000028e-11
6.089999999999999858e+00 1.467009999999999905e-11
6.110000000000000320e+00 1.421070000000000043e-11
6.129999999999999893e+00 1.376489999999999924e-11
6.150000000000000355e+00 1.333219999999999927e-11
6.169999999999999929e+00 1.291220000000000066e-11
6.190000000000000391e+00 1.250469999999999942e-11
6.209999999999999964e+00 1.210930000000000051e-11
6.230000000000000426e+00 1.172559999999999923e-11
6.250000000000000000e+00 1.135320000000000054e-11
6.269999999999999574e+00 1.099200000000000001e-11
6.290000000000000036e+00 1.064149999999999984e-11
6.309999999999999609e+00 1.030139999999999971e-11
6.330000000000000071e+00 9.971550000000000258e-12
6.349999999999999645e+00 9.651540000000000696e-12
6.370000000000000107e+00 9.341120000000000490e-12
6.389999999999999680e+00 9.040009999999999565e-12
6.410000000000000142e+00 8.747960000000000622e-12
6.429999999999999716e+00 8.464710000000000592e-12
6.450000000000000178e+00 8.189999999999999635e-12
6.469999999999999751e+00 7.923589999999999764e-12
6.490000000000000213e+00 7.665239999999999759e-12
6.509999999999999787e+00 7.414730000000000254e-12
6.530000000000000249e+00 7.171820000000000030e-12
6.549999999999999822e+00 6.936299999999999838e-12
6.570000000000000284e+00 6.707969999999999739e-12
6.589999999999999858e+00 6.486610000000000368e-12
6.610000000000000320e+00 6.272010000000000050e-12
6.629999999999999893e+00 6.063989999999999892e-12
6.650000000000000355e+00 5.862360000000000074e-12
6.669999999999999929e+00 5.666929999999999967e-12
6.690000000000000391e+00 5.477519999999999868e-12
6.709999999999999964e+00 5.293960000000000194e-12
6.730000000000000426e+00 5.116079999999999744e-12
6.750000000000000000e+00 4.943719999999999861e-12
6.769999999999999574e+00 4.776710000000000151e-12
6.790000000000000036e+00 4.614890000000000342e-12
6.809999999999999609e+00 4.458120000000000395e-12
6.830000000000000071e+00 4.306250000000000154e-12
6.849999999999999645e+00 4.159140000000000391e-12
6.870000000000000107e+00 4.016640000000000139e-12
6.889999999999999680e+00 3.878629999999999600e-12
6.910000000000000142e+00 3.744960000000000231e-12
6.929999999999999716e+00 3.615519999999999926e-12
6.950000000000000178e+00 3.490169999999999859e-12
6.969999999999999751e+00 3.368810000000000061e-12
6.990000000000000213e+00 3.251300000000000091e-12
7.009999999999999787e+00 3.137539999999999978e-12
7.030000000000000249e+00 3.027409999999999921e-12
7.049999999999999822e+00 2.920809999999999951e-12
7.070000000000000284e+00 2.817629999999999981e-12
7.089999999999999858e+00 2.717780000000000159e-12
7.110000000000000320e+00 2.621139999999999876e-12
7.129999999999999893e+00 2.527629999999999803e-12
7.150000000000000355e+00 2.437160000000000088e-12
7.169999999999999929e+00 2.349619999999999837e-12
7.190000000000000391e+00 2.264939999999999839e-12
7.209999999999999964e+00 2.183020000000000123e-12
7.230000000000000426e+00 2.103789999999999864e-12
7.259999999999999787e+00 2.027170000000000136e-12
7.280000000000000249e+00 1.953069999999999876e-12
7.299999999999999822e+00 1.881419999999999873e-12
7.320000000000000284e+00 1.812139999999999991e-12
7.339999999999999858e+00 1.745160000000000008e-12
7.360000000000000320e+00 1.680420000000000023e-12
7.379999999999999893e+00 1.617839999999999900e-12
7.400000000000000355e+00 1.557359999999999939e-12
7.419999999999999929e+00 1.498920000000000039e-12
7.440000000000000391e+00 1.442449999999999978e-12
7.459999999999999964e+00 1.387890000000000057e-12
7.480000000000000426e+00 1.335179999999999971e-12
7.500000000000000000e+00 1.284269999999999939e-12
7.519999999999999574e+00 1.235100000000000059e-12
7.540000000000000036e+00 1.187610000000000026e-12
7.559999999999999609e+00 1.141759999999999974e-12
7.580000000000000071e+00 1.097490000000000002e-12
7.599999999999999645e+00 1.054760000000000041e-12
7.620000000000000107e+00 1.013519999999999906e-12
7.639999999999999680e+00 9.737100000000000990e-13
7.660000000000000142e+00 9.353000000000000637e-13
7.679999999999999716e+00 8.982409999999999891e-13
7.700000000000000178e+00 8.624909999999999647e-13
7.719999999999999751e+00 8.280070000000000079e-13
7.740000000000000213e+00 7.947519999999999643e-13
7.759999999999999787e+00 7.626849999999999960e-13
7.780000000000000249e+00 7.317690000000000498e-13
7.799999999999999822e+00 7.019669999999999714e-13
7.820000000000000284e+00 6.732439999999999533e-13
7.839999999999999858e+00 6.455640000000000147e-13
7.860000000000000320e+00 6.188960000000000318e-13
7.879999999999999893e+00 5.932059999999999666e-13
7.900000000000000355e+00 5.684629999999999982e-13
7.919999999999999929e+00 5.446350000000000315e-13
7.940000000000000391e+00 5.216939999999999579e-13
7.959999999999999964e+00 4.996110000000000004e-13
7.980000000000000426e+00 4.783569999999999781e-13
8.000000000000000000e+00 4.579060000000000281e-13
8.019999999999999574e+00 4.382310000000000135e-13
8.039999999999999147e+00 4.193069999999999924e-13
8.060000000000000497e+00 4.011090000000000229e-13
8.080000000000000071e+00 3.836140000000000050e-13
8.099999999999999645e+00 3.667969999999999970e-13
8.119999999999999218e+00 3.506360000000000218e-13
8.140000000000000568e+00 3.351100000000000231e-13
8.160000000000000142e+00 3.201960000000000020e-13
8.179999999999999716e+00 3.058749999999999967e-13
8.199999999999999289e+00 2.921270000000000234e-13
8.220000000000000639e+00 2.789319999999999973e-13
8.240000000000000213e+00 2.662719999999999785e-13
8.259999999999999787e+00 2.541280000000000053e-13
8.279999999999999361e+00 2.424830000000000079e-13
8.300000000000000711e+00 2.313189999999999961e-13
8.320000000000000284e+00 2.206199999999999980e-13
8.339999999999999858e+00 2.103699999999999912e-13
8.359999999999999432e+00 2.005530000000000038e-13
8.380000000000000782e+00 1.911550000000000069e-13
8.400000000000000355e+00 1.821610000000000000e-13
8.419999999999999929e+00 1.735560000000000079e-13
8.439999999999999503e+00 1.653279999999999949e-13
8.460000000000000853e+00 1.574609999999999891e-13
8.480000000000000426e+00 1.499449999999999987e-13
8.500000000000000000e+00 1.427649999999999980e-13
