# log10(T) rate(cm^3/s)
# RecombRates
3.500000000000000000e+00 4.745450000000000399e-10
3.520000000000000018e+00 4.613289999999999896e-10
3.540000000000000036e+00 4.484689999999999947e-10
3.560000000000000053e+00 4.359559999999999781e-10
3.580000000000000071e+00 4.237810000000000175e-10
3.600000000000000089e+00 4.119359999999999928e-10
3.620000000000000107e+00 4.004110000000000248e-10
3.640000000000000124e+00 3.891990000000000019e-10
3.660000000000000142e+00 3.782899999999999934e-10
3.680000000000000160e+00 3.676769999999999908e-10
3.700000000000000178e+00 3.573519999999999774e-10
3.720000000000000195e+00 3.473069999999999878e-10
3.740000000000000213e+00 3.375350000000000137e-10
3.759999999999999787e+00 3.280289999999999950e-10
3.779999999999999805e+00 3.187819999999999751e-10
3.799999999999999822e+00 3.097859999999999888e-10
3.819999999999999840e+00 3.010349999999999846e-10
3.839999999999999858e+00 2.925230000000000144e-10
3.859999999999999876e+00 2.842439999999999751e-10
3.879999999999999893e+00 2.761900000000000047e-10
3.899999999999999911e+00 2.683560000000000088e-10
3.919999999999999929e+00 2.607369999999999962e-10
3.939999999999999947e+00 2.533260000000000101e-10
3.959999999999999964e+00 2.461180000000000077e-10
3.979999999999999982e+00 2.391079999999999978e-10
4.000000000000000000e+00 2.322900000000000064e-10
4.019999999999999574e+00 2.256589999999999907e-10
4.040000000000000036e+00 2.192100000000000113e-10
4.059999999999999609e+00 2.129390000000000078e-10
4.080000000000000071e+00 2.068400000000000064e-10
4.099999999999999645e+00 2.009089999999999987e-10
4.120000000000000107e+00 1.951420000000000019e-10
4.139999999999999680e+00 1.895329999999999906e-10
4.160000000000000142e+00 1.840799999999999992e-10
4.179999999999999716e+00 1.787770000000000021e-10
4.200000000000000178e+00 1.736199999999999908e-10
4.219999999999999751e+00 1.686070000000000000e-10
4.240000000000000213e+00 1.637320000000000039e-10
4.259999999999999787e+00 1.589920000000000027e-10
4.280000000000000249e+00 1.543839999999999965e-10
4.299999999999999822e+00 1.499040000000000026e-10
4.320000000000000284e+00 1.455480000000000127e-10
4.339999999999999858e+00 1.413140000000000096e-10
4.360000000000000320e+00 1.371970000000000020e-10
4.379999999999999893e+00 1.331949999999999986e-10
4.400000000000000355e+00 1.293049999999999996e-10
4.419999999999999929e+00 1.255229999999999966e-10
4.440000000000000391e+00 1.218469999999999981e-10
4.459999999999999964e+00 1.182740000000000043e-10
4.480000000000000426e+00 1.148010000000000025e-10
4.500000000000000000e+00 1.114250000000000055e-10
4.519999999999999574e+00 1.081439999999999964e-10
4.540000000000000036e+00 1.049550000000000010e-10
4.559999999999999609e+00 1.018549999999999936e-10
4.580000000000000071e+00 9.884320000000000356e-11
4.599999999999999645e+00 9.591570000000000256e-11
4.620000000000000107e+00 9.307089999999999755e-11
4.639999999999999680e+00 9.030630000000000588e-11
4.660000000000000142e+00 8.761969999999999833e-11
4.679999999999999716e+00 8.500909999999999650e-11
4.700000000000000178e+00 8.247249999999999619e-11
4.719999999999999751e+00 8.000769999999999401e-11
4.740000000000000213e+00 7.761280000000000469e-11
4.769999999999999574e+00 7.528590000000000417e-11
4.790000000000000036e+00 7.302509999999999425e-11
4.809999999999999609e+00 7.082879999999999482e-11
4.830000000000000071e+00 6.869489999999999560e-11
4.849999999999999645e+00 6.662189999999999666e-11
4.870000000000000107e+00 6.460809999999999892e-11
4.889999999999999680e+00 6.265189999999999641e-11
4.910000000000000142e+00 6.075169999999999608e-11
4.929999999999999716e+00 5.890590000000000490e-11
4.950000000000000178e+00 5.711299999999999706e-11
4.969999999999999751e+00 5.537169999999999760e-11
4.990000000000000213e+00 5.368040000000000056e-11
5.009999999999999787e+00 5.203789999999999822e-11
5.030000000000000249e+00 5.044259999999999753e-11
5.049999999999999822e+00 4.889339999999999682e-11
5.070000000000000284e+00 4.738900000000000174e-11
5.089999999999999858e+00 4.592809999999999854e-11
5.110000000000000320e+00 4.450959999999999848e-11
5.129999999999999893e+00 4.313220000000000073e-11
5.150000000000000355e+00 4.179479999999999716e-11
5.169999999999999929e+00 4.049629999999999901e-11
5.190000000000000391e+00 3.923559999999999813e-11
5.209999999999999964e+00 3.801169999999999887e-11
5.230000000000000426e+00 3.682359999999999912e-11
5.250000000000000000e+00 3.567019999999999719e-11
5.269999999999999574e+00 3.455059999999999699e-11
5.290000000000000036e+00 3.346380000000000287e-11
5.309999999999999609e+00 3.240899999999999893e-11
5.330000000000000071e+00 3.138520000000000242e-11
5.349999999999999645e+00 3.039149999999999788e-11
5.370000000000000107e+00 2.942720000000000127e-11
5.389999999999999680e+00 2.849140000000000035e-11
5.410000000000000142e+00 2.758329999999999860e-11
5.429999999999999716e+00 2.670209999999999948e-11
5.450000000000000178e+00 2.584700000000000003e-11
5.469999999999999751e+00 2.501739999999999960e-11
5.490000000000000213e+00 2.421249999999999846e-11
5.509999999999999787e+00 2.343159999999999964e-11
5.530000000000000249e+00 2.267409999999999928e-11
5.549999999999999822e+00 2.193920000000000087e-11
5.570000000000000284e+00 2.122640000000000011e-11
5.589999999999999858e+00 2.053500000000000004e-11
5.610000000000000320e+00 1.986440000000000005e-11
5.629999999999999893e+00 1.921409999999999908e-11
5.650000000000000355e+00 1.858330000000000060e-11
5.669999999999999929e+00 1.797169999999999945e-11
5.690000000000000391e+00 1.737859999999999867e-11
5.709999999999999964e+00 1.680350000000000044e-11
5.730000000000000426e+00 1.624600000000000004e-11
5.750000000000000000e+00 1.570540000000000051e-11
5.769999999999999574e+00 1.518130000000000035e-11
5.790000000000000036e+00 1.467340000000000087e-11
5.809999999999999609e+00 1.418090000000000069e-11
5.830000000000000071e+00 1.370370000000000026e-11
5.849999999999999645e+00 1.324109999999999939e-11
5.870000000000000107e+00 1.279279999999999937e-11
5.889999999999999680e+00 1.235840000000000033e-11
5.910000000000000142e+00 1.193750000000000078e-11
5.929999999999999716e+00 1.152959999999999966e-11
5.950000000000000178e+00 1.113449999999999946e-11
5.969999999999999751e+00 1.075170000000000073e-11
5.990000000000000213e+00 1.038089999999999992e-11
6.009999999999999787e+00 1.002170000000000040e-11
6.030000000000000249e+00 9.673809999999999550e-12
6.049999999999999822e+00 9.336910000000000046e-12
6.070000000000000284e+00 9.010650000000000183e-12
6.089999999999999858e+00 8.694749999999999883e-12
6.110000000000000320e+00 8.388890000000000215e-12
6.129999999999999893e+00 8.092769999999999251e-12
6.150000000000000355e+00 7.806119999999999458e-12
6.169999999999999929e+00 7.528649999999999833e-12
6.190000000000000391e+00 7.260119999999999967e-12
6.209999999999999964e+00 7.000230000000000354e-12
6.230000000000000426e+00 6.748749999999999895e-12
6.250000000000000000e+00 6.505420000000000365e-12
6.269999999999999574e+00 6.270019999999999975e-12
6.290000000000000036e+00 6.042299999999999810e-12
6.309999999999999609e+00 5.822039999999999697e-12
6.330000000000000071e+00 5.609020000000000267e-12
6.349999999999999645e+00 5.403039999999999967e-12
6.370000000000000107e+00 5.203969999999999686e-12
6.389999999999999680e+00 5.011110000000000041e-12
6.410000000000000142e+00 4.825109999999999824e-12
6.429999999999999716e+00 4.645539999999999610e-12
6.450000000000000178e+00 4.472089999999999779e-12
6.469999999999999751e+00 4.304600000000000055e-12
6.490000000000000213e+00 4.142939999999999712e-12
6.509999999999999787e+00 3.987030000000000228e-12
6.530000000000000249e+00 3.836810000000000087e-12
6.549999999999999822e+00 3.692259999999999860e-12
6.570000000000000284e+00 3.553379999999999951e-12
6.589999999999999858e+00 3.420159999999999838e-12
6.610000000000000320e+00 3.292620000000000161e-12
6.629999999999999893e+00 3.170779999999999945e-12
6.650000000000000355e+00 3.054680000000000066e-12
6.669999999999999929e+00 2.944329999999999835e-12
6.690000000000000391e+00 2.839760000000000009e-12
6.709999999999999964e+00 2.740979999999999898e-12
6.730000000000000426e+00 2.647980000000000194e-12
6.750000000000000000e+00 2.560720000000000018e-12
6.769999999999999574e+00 2.479139999999999875e-12
6.790000000000000036e+00 2.403119999999999963e-12
6.809999999999999609e+00 2.332540000000000076e-12
6.830000000000000071e+00 2.267220000000000108e-12
6.849999999999999645e+00 2.206930000000000170e-12
6.870000000000000107e+00 2.151399999999999900e-12
6.889999999999999680e+00 2.100360000000000150e-12
6.910000000000000142e+00 2.053449999999999899e-12
6.929999999999999716e+00 2.010329999999999977e-12
6.950000000000000178e+00 1.970609999999999819e-12
6.969999999999999751e+00 1.933910000000000188e-12
6.990000000000000213e+00 1.899800000000000043e-12
7.009999999999999787e+00 1.867900000000000149e-12
7.030000000000000249e+00 1.837809999999999820e-12
7.049999999999999822e+00 1.809129999999999986e-12
7.070000000000000284e+00 1.781509999999999949e-12
7.089999999999999858e+00 1.754609999999999932e-12
7.110000000000000320e+00 1.728100000000000078e-12
7.129999999999999893e+00 1.701719999999999942e-12
7.150000000000000355e+00 1.675210000000000089e-12
7.169999999999999929e+00 1.648369999999999973e-12
7.190000000000000391e+00 1.621009999999999976e-12
7.209999999999999964e+00 1.592999999999999977e-12
7.230000000000000426e+00 1.564230000000000091e-12
7.259999999999999787e+00 1.534619999999999978e-12
7.280000000000000249e+00 1.504140000000000092e-12
7.299999999999999822e+00 1.472779999999999910e-12
7.320000000000000284e+00 1.440529999999999921e-12
7.339999999999999858e+00 1.407439999999999908e-12
7.360000000000000320e+00 1.373560000000000056e-12
7.379999999999999893e+00 1.338130000000000075e-12
7.400000000000000355e+00 1.302689999999999976e-12
7.419999999999999929e+00 1.266609999999999992e-12
7.440000000000000391e+00 1.230049999999999994e-12
7.459999999999999964e+00 1.193150000000000020e-12
7.480000000000000426e+00 1.156019999999999955e-12
7.500000000000000000e+00 1.118770000000000089e-12
7.519999999999999574e+00 1.081529999999999936e-12
7.540000000000000036e+00 1.044369999999999921e-12
7.559999999999999609e+00 1.007410000000000046e-12
7.580000000000000071e+00 9.707370000000000469e-13
7.599999999999999645e+00 9.344300000000000886e-13
7.620000000000000107e+00 8.985769999999999788e-13
7.639999999999999680e+00 8.632520000000000258e-13
7.660000000000000142e+00 8.285279999999999609e-13
7.679999999999999716e+00 7.944649999999999878e-13
7.700000000000000178e+00 7.611220000000000359e-13
7.719999999999999751e+00 7.285489999999999888e-13
7.740000000000000213e+00 6.967890000000000312e-13
7.759999999999999787e+00 6.658780000000000431e-13
7.780000000000000249e+00 6.358470000000000471e-13
7.799999999999999822e+00 6.067189999999999919e-13
7.820000000000000284e+00 5.785119999999999688e-13
7.839999999999999858e+00 5.512380000000000388e-13
7.860000000000000320e+00 5.249049999999999732e-13
7.879999999999999893e+00 4.995140000000000463e-13
7.900000000000000355e+00 4.750639999999999839e-13
7.919999999999999929e+00 4.515490000000000079e-13
7.940000000000000391e+00 4.289590000000000001e-13
7.959999999999999964e+00 4.072809999999999788e-13
7.980000000000000426e+00 3.865020000000000125e-13
8.000000000000000000e+00 3.666029999999999879e-13
8.019999999999999574e+00 3.475640000000000223e-13
8.039999999999999147e+00 3.293649999999999804e-13
8.060000000000000497e+00 3.119830000000000147e-13
8.080000000000000071e+00 2.953959999999999966e-13
8.099999999999999645e+00 2.795780000000000129e-13
8.119999999999999218e+00 2.645049999999999922e-13
8.140000000000000568e+00 2.501510000000000213e-13
8.160000000000000142e+00 2.364910000000000068e-13
8.179999999999999716e+00 2.235000000000000069e-13
8.199999999999999289e+00 2.111520000000000074e-13
8.220000000000000639e+00 1.994219999999999908e-13
8.240000000000000213e+00 1.882860000000000118e-13
8.259999999999999787e+00 1.777190000000000024e-13
8.279999999999999361e+00 1.676979999999999888e-13
8.300000000000000711e+00 1.581980000000000041e-13
8.320000000000000284e+00 1.491969999999999953e-13
8.339999999999999858e+00 1.406730000000000106e-13
8.359999999999999432e+00 1.326969999999999898e-13
8.380000000000000782e+00 1.250619999999999926e-13
8.400000000000000355e+00 1.178509999999999943e-13
8.419999999999999929e+00 1.110449999999999954e-13
8.439999999999999503e+00 1.046260000000000052e-13
8.460000000000000853e+00 9.857459999999999530e-14
8.480000000000000426e+00 9.287219999999999478e-14
8.500000000000000000e+00 8.750129999999999895e-14
