# log10(T) rate(cm^3/s)
# RecombRates
3.500000000000000000e+00 3.012820000000000081e-12
3.520000000000000018e+00 2.913330000000000068e-12
3.540000000000000036e+00 2.816880000000000009e-12
3.560000000000000053e+00 2.723369999999999936e-12
3.580000000000000071e+00 2.632709999999999997e-12
3.600000000000000089e+00 2.544860000000000124e-12
3.620000000000000107e+00 2.456979999999999897e-12
3.640000000000000124e+00 2.374540000000000099e-12
3.660000000000000142e+00 2.294629999999999887e-12
3.680000000000000160e+00 2.217169999999999932e-12
3.700000000000000178e+00 2.142089999999999812e-12
3.720000000000000195e+00 2.069319999999999911e-12
3.740000000000000213e+00 1.998799999999999924e-12
3.759999999999999787e+00 1.930459999999999834e-12
3.779999999999999805e+00 1.864230000000000024e-12
3.799999999999999822e+00 1.800059999999999905e-12
3.819999999999999840e+00 1.737889999999999979e-12
3.839999999999999858e+00 1.677620000000000075e-12
3.859999999999999876e+00 1.619320000000000011e-12
3.879999999999999893e+00 1.562799999999999965e-12
3.899999999999999911e+00 1.508070000000000056e-12
3.919999999999999929e+00 1.454970000000000009e-12
3.939999999999999947e+00 1.403579999999999963e-12
3.959999999999999964e+00 1.353830000000000099e-12
3.979999999999999982e+00 1.305670000000000029e-12
4.000000000000000000e+00 1.259020000000000021e-12
4.019999999999999574e+00 1.213860000000000040e-12
4.040000000000000036e+00 1.170120000000000067e-12
4.059999999999999609e+00 1.127780000000000068e-12
4.080000000000000071e+00 1.086779999999999939e-12
4.099999999999999645e+00 1.047089999999999934e-12
4.120000000000000107e+00 1.008680000000000100e-12
4.139999999999999680e+00 9.715019999999999937e-13
4.160000000000000142e+00 9.355260000000000670e-13
4.179999999999999716e+00 9.007170000000000080e-13
4.200000000000000178e+00 8.670400000000000093e-13
4.219999999999999751e+00 8.344629999999999755e-13
4.240000000000000213e+00 8.029580000000000002e-13
4.259999999999999787e+00 7.724950000000000319e-13
4.280000000000000249e+00 7.430500000000000499e-13
4.299999999999999822e+00 7.146130000000000368e-13
4.320000000000000284e+00 6.871849999999999643e-13
4.339999999999999858e+00 6.608029999999999864e-13
4.360000000000000320e+00 6.355599999999999697e-13
4.379999999999999893e+00 6.116460000000000375e-13
4.400000000000000355e+00 5.894049999999999508e-13
4.419999999999999929e+00 5.694340000000000150e-13
4.440000000000000391e+00 5.527029999999999725e-13
4.459999999999999964e+00 5.407380000000000330e-13
4.480000000000000426e+00 5.358429999999999817e-13
4.500000000000000000e+00 5.414370000000000485e-13
4.519999999999999574e+00 5.621020000000000418e-13
4.540000000000000036e+00 6.045700000000000179e-13
4.559999999999999609e+00 6.774749999999999986e-13
4.580000000000000071e+00 7.921399999999999952e-13
4.599999999999999645e+00 9.627320000000000220e-13
4.620000000000000107e+00 1.206649999999999912e-12
4.639999999999999680e+00 1.544630000000000053e-12
4.660000000000000142e+00 2.000790000000000000e-12
4.679999999999999716e+00 2.602289999999999810e-12
4.700000000000000178e+00 3.378970000000000091e-12
4.719999999999999751e+00 4.362670000000000029e-12
4.740000000000000213e+00 5.586339999999999802e-12
4.769999999999999574e+00 7.082840000000000140e-12
4.790000000000000036e+00 8.883730000000000558e-12
4.809999999999999609e+00 1.101800000000000011e-11
4.830000000000000071e+00 1.351080000000000015e-11
4.849999999999999645e+00 1.638159999999999878e-11
4.870000000000000107e+00 1.964350000000000046e-11
4.889999999999999680e+00 2.330229999999999937e-11
4.910000000000000142e+00 2.735520000000000121e-11
4.929999999999999716e+00 3.179100000000000297e-11
4.950000000000000178e+00 3.658930000000000283e-11
4.969999999999999751e+00 4.172110000000000082e-11
4.990000000000000213e+00 4.714950000000000220e-11
5.009999999999999787e+00 5.282970000000000137e-11
5.030000000000000249e+00 5.871100000000000540e-11
5.049999999999999822e+00 6.473689999999999490e-11
5.070000000000000284e+00 7.084800000000000184e-11
5.089999999999999858e+00 7.698139999999999589e-11
5.110000000000000320e+00 8.307450000000000352e-11
5.129999999999999893e+00 8.906410000000000215e-11
5.150000000000000355e+00 9.488959999999999666e-11
5.169999999999999929e+00 1.004929999999999936e-10
5.190000000000000391e+00 1.058209999999999983e-10
5.209999999999999964e+00 1.108250000000000025e-10
5.230000000000000426e+00 1.154619999999999989e-10
5.250000000000000000e+00 1.196960000000000021e-10
5.269999999999999574e+00 1.234960000000000045e-10
5.290000000000000036e+00 1.268399999999999983e-10
5.309999999999999609e+00 1.297100000000000101e-10
5.330000000000000071e+00 1.320969999999999886e-10
5.349999999999999645e+00 1.339970000000000027e-10
5.370000000000000107e+00 1.354119999999999921e-10
5.389999999999999680e+00 1.363489999999999910e-10
5.410000000000000142e+00 1.368210000000000076e-10
5.429999999999999716e+00 1.368439999999999981e-10
5.450000000000000178e+00 1.364369999999999963e-10
5.469999999999999751e+00 1.356250000000000099e-10
5.490000000000000213e+00 1.344320000000000120e-10
5.509999999999999787e+00 1.328850000000000018e-10
5.530000000000000249e+00 1.310140000000000038e-10
5.549999999999999822e+00 1.288480000000000084e-10
5.570000000000000284e+00 1.264169999999999885e-10
5.589999999999999858e+00 1.237490000000000035e-10
5.610000000000000320e+00 1.208759999999999918e-10
5.629999999999999893e+00 1.178250000000000041e-10
5.650000000000000355e+00 1.146239999999999963e-10
5.669999999999999929e+00 1.112989999999999974e-10
5.690000000000000391e+00 1.078759999999999980e-10
5.709999999999999964e+00 1.043789999999999970e-10
5.730000000000000426e+00 1.008289999999999937e-10
5.750000000000000000e+00 9.724680000000000120e-11
5.769999999999999574e+00 9.365149999999999450e-11
5.790000000000000036e+00 9.006019999999999626e-11
5.809999999999999609e+00 8.648830000000000418e-11
5.830000000000000071e+00 8.294959999999999705e-11
5.849999999999999645e+00 7.945669999999999767e-11
5.870000000000000107e+00 7.602050000000000389e-11
5.889999999999999680e+00 7.265020000000000158e-11
5.910000000000000142e+00 6.935409999999999990e-11
5.929999999999999716e+00 6.613899999999999515e-11
5.950000000000000178e+00 6.301059999999999487e-11
5.969999999999999751e+00 5.997359999999999802e-11
5.990000000000000213e+00 5.703140000000000274e-11
6.009999999999999787e+00 5.418690000000000289e-11
6.030000000000000249e+00 5.144210000000000271e-11
6.049999999999999822e+00 4.879799999999999786e-11
6.070000000000000284e+00 4.625499999999999950e-11
6.089999999999999858e+00 4.381330000000000032e-11
6.110000000000000320e+00 4.147209999999999734e-11
6.129999999999999893e+00 3.923040000000000134e-11
6.150000000000000355e+00 3.708679999999999905e-11
6.169999999999999929e+00 3.503949999999999827e-11
6.190000000000000391e+00 3.308640000000000167e-11
6.209999999999999964e+00 3.122519999999999987e-11
6.230000000000000426e+00 2.945349999999999683e-11
6.250000000000000000e+00 2.776850000000000148e-11
6.269999999999999574e+00 2.616769999999999885e-11
6.290000000000000036e+00 2.464799999999999918e-11
6.309999999999999609e+00 2.320649999999999891e-11
6.330000000000000071e+00 2.184040000000000052e-11
6.349999999999999645e+00 2.054670000000000089e-11
6.370000000000000107e+00 1.932230000000000058e-11
6.389999999999999680e+00 1.816439999999999882e-11
6.410000000000000142e+00 1.707009999999999852e-11
6.429999999999999716e+00 1.603649999999999937e-11
6.450000000000000178e+00 1.506070000000000105e-11
6.469999999999999751e+00 1.414019999999999987e-11
6.490000000000000213e+00 1.327210000000000037e-11
6.509999999999999787e+00 1.245400000000000005e-11
6.530000000000000249e+00 1.168319999999999933e-11
6.549999999999999822e+00 1.095749999999999971e-11
6.570000000000000284e+00 1.027440000000000073e-11
6.589999999999999858e+00 9.631730000000000198e-12
6.610000000000000320e+00 9.027309999999999831e-12
6.629999999999999893e+00 8.459079999999999535e-12
6.650000000000000355e+00 7.925089999999999707e-12
6.669999999999999929e+00 7.423409999999999365e-12
6.690000000000000391e+00 6.952239999999999869e-12
6.709999999999999964e+00 6.509869999999999604e-12
6.730000000000000426e+00 6.094660000000000205e-12
6.750000000000000000e+00 5.705060000000000330e-12
6.769999999999999574e+00 5.339559999999999919e-12
6.790000000000000036e+00 4.996770000000000326e-12
6.809999999999999609e+00 4.675360000000000386e-12
6.830000000000000071e+00 4.374069999999999758e-12
6.849999999999999645e+00 4.091680000000000191e-12
6.870000000000000107e+00 3.827079999999999885e-12
6.889999999999999680e+00 3.579199999999999935e-12
6.910000000000000142e+00 3.347020000000000010e-12
6.929999999999999716e+00 3.129580000000000080e-12
6.950000000000000178e+00 2.925980000000000019e-12
6.969999999999999751e+00 2.735390000000000121e-12
6.990000000000000213e+00 2.556989999999999993e-12
7.009999999999999787e+00 2.390019999999999948e-12
7.030000000000000249e+00 2.233780000000000202e-12
7.049999999999999822e+00 2.087600000000000112e-12
7.070000000000000284e+00 1.950849999999999912e-12
7.089999999999999858e+00 1.822939999999999904e-12
7.110000000000000320e+00 1.703309999999999939e-12
7.129999999999999893e+00 1.591430000000000015e-12
7.150000000000000355e+00 1.486819999999999919e-12
7.169999999999999929e+00 1.389009999999999955e-12
7.190000000000000391e+00 1.297580000000000010e-12
7.209999999999999964e+00 1.212109999999999972e-12
7.230000000000000426e+00 1.132219999999999996e-12
7.259999999999999787e+00 1.057559999999999989e-12
7.280000000000000249e+00 9.877870000000000601e-13
7.299999999999999822e+00 9.225880000000000670e-13
7.320000000000000284e+00 8.616669999999999876e-13
7.339999999999999858e+00 8.047480000000000360e-13
7.360000000000000320e+00 7.515739999999999841e-13
7.379999999999999893e+00 7.019020000000000115e-13
7.400000000000000355e+00 6.555020000000000275e-13
7.419999999999999929e+00 6.121620000000000324e-13
7.440000000000000391e+00 5.716850000000000021e-13
7.459999999999999964e+00 5.338829999999999577e-13
7.480000000000000426e+00 4.985799999999999819e-13
7.500000000000000000e+00 4.656139999999999585e-13
7.519999999999999574e+00 4.348309999999999977e-13
7.540000000000000036e+00 4.060910000000000111e-13
7.559999999999999609e+00 3.792560000000000048e-13
7.580000000000000071e+00 3.542039999999999819e-13
7.599999999999999645e+00 3.308160000000000113e-13
7.620000000000000107e+00 3.089839999999999989e-13
7.639999999999999680e+00 2.886039999999999888e-13
7.660000000000000142e+00 2.695819999999999917e-13
7.679999999999999716e+00 2.518260000000000116e-13
7.700000000000000178e+00 2.352560000000000126e-13
7.719999999999999751e+00 2.197899999999999904e-13
7.740000000000000213e+00 2.053580000000000020e-13
7.759999999999999787e+00 1.918890000000000066e-13
7.780000000000000249e+00 1.793220000000000057e-13
7.799999999999999822e+00 1.675940000000000076e-13
7.820000000000000284e+00 1.566530000000000091e-13
7.839999999999999858e+00 1.464439999999999917e-13
7.860000000000000320e+00 1.369200000000000113e-13
7.879999999999999893e+00 1.280349999999999941e-13
7.900000000000000355e+00 1.197460000000000080e-13
7.919999999999999929e+00 1.120140000000000062e-13
7.940000000000000391e+00 1.048019999999999986e-13
7.959999999999999964e+00 9.807549999999999947e-14
7.980000000000000426e+00 9.180189999999999630e-14
8.000000000000000000e+00 8.595099999999999898e-14
8.019999999999999574e+00 8.049450000000000350e-14
8.039999999999999147e+00 7.540630000000000101e-14
8.060000000000000497e+00 7.066189999999999752e-14
8.080000000000000071e+00 6.623840000000000127e-14
8.099999999999999645e+00 6.211409999999999379e-14
8.119999999999999218e+00 5.826920000000000580e-14
8.140000000000000568e+00 5.468490000000000158e-14
8.160000000000000142e+00 5.134370000000000164e-14
8.179999999999999716e+00 4.822950000000000164e-14
8.199999999999999289e+00 4.532699999999999836e-14
8.220000000000000639e+00 4.262209999999999971e-14
8.240000000000000213e+00 4.010160000000000302e-14
8.259999999999999787e+00 3.775289999999999860e-14
8.279999999999999361e+00 3.556470000000000142e-14
8.300000000000000711e+00 3.352599999999999770e-14
8.320000000000000284e+00 3.162680000000000187e-14
8.339999999999999858e+00 2.985779999999999698e-14
8.359999999999999432e+00 2.821030000000000009e-14
8.380000000000000782e+00 2.667589999999999945e-14
8.400000000000000355e+00 2.524719999999999894e-14
8.419999999999999929e+00 2.391679999999999925e-14
8.439999999999999503e+00 2.267839999999999869e-14
8.460000000000000853e+00 2.152539999999999909e-14
8.480000000000000426e+00 2.045229999999999985e-14
8.500000000000000000e+00 1.945360000000000041e-14
