# log10(T) rate(cm^3/s)
# RecombRates
3.500000000000000000e+00 1.042239999999999986e-10
3.520000000000000018e+00 1.011830000000000062e-10
3.540000000000000036e+00 9.822619999999999680e-11
3.560000000000000053e+00 9.535209999999999636e-11
3.580000000000000071e+00 9.255830000000000234e-11
3.600000000000000089e+00 8.984270000000000450e-11
3.620000000000000107e+00 8.720300000000000637e-11
3.640000000000000124e+00 8.463729999999999682e-11
3.660000000000000142e+00 8.214350000000000435e-11
3.680000000000000160e+00 7.971979999999999803e-11
3.700000000000000178e+00 7.736419999999999946e-11
3.720000000000000195e+00 7.507479999999999753e-11
3.740000000000000213e+00 7.284990000000000607e-11
3.759999999999999787e+00 7.068769999999999414e-11
3.779999999999999805e+00 6.858639999999999541e-11
3.799999999999999822e+00 6.654460000000000304e-11
3.819999999999999840e+00 6.456040000000000590e-11
3.839999999999999858e+00 6.263250000000000318e-11
3.859999999999999876e+00 6.075910000000000270e-11
3.879999999999999893e+00 5.893890000000000365e-11
3.899999999999999911e+00 5.717039999999999962e-11
3.919999999999999929e+00 5.545209999999999714e-11
3.939999999999999947e+00 5.378270000000000185e-11
3.959999999999999964e+00 5.216090000000000002e-11
3.979999999999999982e+00 5.058539999999999729e-11
4.000000000000000000e+00 4.905479999999999975e-11
4.019999999999999574e+00 4.756799999999999926e-11
4.040000000000000036e+00 4.612380000000000103e-11
4.059999999999999609e+00 4.472099999999999736e-11
4.080000000000000071e+00 4.335859999999999904e-11
4.099999999999999645e+00 4.203539999999999838e-11
4.120000000000000107e+00 4.075059999999999884e-11
4.139999999999999680e+00 3.950349999999999702e-11
4.160000000000000142e+00 3.829340000000000241e-11
4.179999999999999716e+00 3.712040000000000165e-11
4.200000000000000178e+00 3.598479999999999991e-11
4.219999999999999751e+00 3.488779999999999842e-11
4.240000000000000213e+00 3.383189999999999925e-11
4.259999999999999787e+00 3.282119999999999751e-11
4.280000000000000249e+00 3.186179999999999900e-11
4.299999999999999822e+00 3.096259999999999733e-11
4.320000000000000284e+00 3.013589999999999723e-11
4.339999999999999858e+00 2.939819999999999806e-11
4.360000000000000320e+00 2.877039999999999947e-11
4.379999999999999893e+00 2.827899999999999936e-11
4.400000000000000355e+00 2.795559999999999934e-11
4.419999999999999929e+00 2.783770000000000123e-11
4.440000000000000391e+00 2.796809999999999995e-11
4.459999999999999964e+00 2.839460000000000101e-11
4.480000000000000426e+00 2.916850000000000117e-11
4.500000000000000000e+00 3.034359999999999927e-11
4.519999999999999574e+00 3.197489999999999858e-11
4.540000000000000036e+00 3.411560000000000056e-11
4.559999999999999609e+00 3.681609999999999940e-11
4.580000000000000071e+00 4.012090000000000204e-11
4.599999999999999645e+00 4.406700000000000277e-11
4.620000000000000107e+00 4.868189999999999838e-11
4.639999999999999680e+00 5.398170000000000292e-11
4.660000000000000142e+00 5.997070000000000416e-11
4.679999999999999716e+00 6.663940000000000461e-11
4.700000000000000178e+00 7.396550000000000426e-11
4.719999999999999751e+00 8.191380000000000100e-11
4.740000000000000213e+00 9.043739999999999833e-11
4.769999999999999574e+00 9.947839999999999585e-11
4.790000000000000036e+00 1.089699999999999996e-10
4.809999999999999609e+00 1.188380000000000088e-10
4.830000000000000071e+00 1.290040000000000024e-10
4.849999999999999645e+00 1.393850000000000052e-10
4.870000000000000107e+00 1.498990000000000114e-10
4.889999999999999680e+00 1.604619999999999987e-10
4.910000000000000142e+00 1.709950000000000128e-10
4.929999999999999716e+00 1.814189999999999967e-10
4.950000000000000178e+00 1.916620000000000046e-10
4.969999999999999751e+00 2.016570000000000048e-10
4.990000000000000213e+00 2.113409999999999995e-10
5.009999999999999787e+00 2.206579999999999994e-10
5.030000000000000249e+00 2.295559999999999981e-10
5.049999999999999822e+00 2.379900000000000229e-10
5.070000000000000284e+00 2.459190000000000066e-10
5.089999999999999858e+00 2.533080000000000108e-10
5.110000000000000320e+00 2.601259999999999763e-10
5.129999999999999893e+00 2.663469999999999902e-10
5.150000000000000355e+00 2.719499999999999760e-10
5.169999999999999929e+00 2.769159999999999772e-10
5.190000000000000391e+00 2.812329999999999945e-10
5.209999999999999964e+00 2.848909999999999936e-10
5.230000000000000426e+00 2.878830000000000180e-10
5.250000000000000000e+00 2.902090000000000160e-10
5.269999999999999574e+00 2.918720000000000133e-10
5.290000000000000036e+00 2.928759999999999924e-10
5.309999999999999609e+00 2.932319999999999961e-10
5.330000000000000071e+00 2.929529999999999809e-10
5.349999999999999645e+00 2.920559999999999890e-10
5.370000000000000107e+00 2.905599999999999768e-10
5.389999999999999680e+00 2.884900000000000036e-10
5.410000000000000142e+00 2.858710000000000254e-10
5.429999999999999716e+00 2.827310000000000238e-10
5.450000000000000178e+00 2.790999999999999978e-10
5.469999999999999751e+00 2.750110000000000236e-10
5.490000000000000213e+00 2.704979999999999793e-10
5.509999999999999787e+00 2.655950000000000015e-10
5.530000000000000249e+00 2.603360000000000200e-10
5.549999999999999822e+00 2.547589999999999988e-10
5.570000000000000284e+00 2.488989999999999798e-10
5.589999999999999858e+00 2.427920000000000132e-10
5.610000000000000320e+00 2.364719999999999771e-10
5.629999999999999893e+00 2.299730000000000081e-10
5.650000000000000355e+00 2.233290000000000102e-10
5.669999999999999929e+00 2.165719999999999993e-10
5.690000000000000391e+00 2.097320000000000001e-10
5.709999999999999964e+00 2.028380000000000031e-10
5.730000000000000426e+00 1.959179999999999897e-10
5.750000000000000000e+00 1.889969999999999937e-10
5.769999999999999574e+00 1.820999999999999967e-10
5.790000000000000036e+00 1.752469999999999895e-10
5.809999999999999609e+00 1.684609999999999883e-10
5.830000000000000071e+00 1.617569999999999926e-10
5.849999999999999645e+00 1.551540000000000104e-10
5.870000000000000107e+00 1.486669999999999892e-10
5.889999999999999680e+00 1.423080000000000063e-10
5.910000000000000142e+00 1.360880000000000009e-10
5.929999999999999716e+00 1.300189999999999984e-10
5.950000000000000178e+00 1.241069999999999986e-10
5.969999999999999751e+00 1.183599999999999925e-10
5.990000000000000213e+00 1.127840000000000057e-10
6.009999999999999787e+00 1.073819999999999995e-10
6.030000000000000249e+00 1.021590000000000036e-10
6.049999999999999822e+00 9.711509999999999844e-11
6.070000000000000284e+00 9.225260000000000618e-11
6.089999999999999858e+00 8.757150000000000102e-11
6.110000000000000320e+00 8.307119999999999847e-11
6.129999999999999893e+00 7.875019999999999861e-11
6.150000000000000355e+00 7.460660000000000322e-11
6.169999999999999929e+00 7.063779999999999775e-11
6.190000000000000391e+00 6.684079999999999525e-11
6.209999999999999964e+00 6.321190000000000533e-11
6.230000000000000426e+00 5.974759999999999797e-11
6.250000000000000000e+00 5.644339999999999919e-11
6.269999999999999574e+00 5.329520000000000095e-11
6.290000000000000036e+00 5.029819999999999827e-11
6.309999999999999609e+00 4.744749999999999952e-11
6.330000000000000071e+00 4.473829999999999972e-11
6.349999999999999645e+00 4.216580000000000033e-11
6.370000000000000107e+00 3.972479999999999811e-11
6.389999999999999680e+00 3.741020000000000229e-11
6.410000000000000142e+00 3.521700000000000231e-11
6.429999999999999716e+00 3.314039999999999963e-11
6.450000000000000178e+00 3.117519999999999746e-11
6.469999999999999751e+00 2.931680000000000287e-11
6.490000000000000213e+00 2.756019999999999883e-11
6.509999999999999787e+00 2.590089999999999842e-11
6.530000000000000249e+00 2.433429999999999901e-11
6.549999999999999822e+00 2.285590000000000079e-11
6.570000000000000284e+00 2.146159999999999894e-11
6.589999999999999858e+00 2.014699999999999968e-11
6.610000000000000320e+00 1.890830000000000012e-11
6.629999999999999893e+00 1.774150000000000150e-11
6.650000000000000355e+00 1.664290000000000050e-11
6.669999999999999929e+00 1.560899999999999943e-11
6.690000000000000391e+00 1.463620000000000099e-11
6.709999999999999964e+00 1.372129999999999970e-11
6.730000000000000426e+00 1.286109999999999980e-11
6.750000000000000000e+00 1.205280000000000050e-11
6.769999999999999574e+00 1.129319999999999958e-11
6.790000000000000036e+00 1.057979999999999981e-11
6.809999999999999609e+00 9.909420000000000805e-12
6.830000000000000071e+00 9.280480000000000054e-12
6.849999999999999645e+00 8.690139999999999562e-12
6.870000000000000107e+00 8.136169999999999652e-12
6.889999999999999680e+00 7.616519999999999538e-12
6.910000000000000142e+00 7.129150000000000172e-12
6.929999999999999716e+00 6.672170000000000235e-12
6.950000000000000178e+00 6.243770000000000162e-12
6.969999999999999751e+00 5.842250000000000072e-12
6.990000000000000213e+00 5.465959999999999865e-12
7.009999999999999787e+00 5.113409999999999716e-12
7.030000000000000249e+00 4.783160000000000391e-12
7.049999999999999822e+00 4.473820000000000015e-12
7.070000000000000284e+00 4.184119999999999745e-12
7.089999999999999858e+00 3.912849999999999831e-12
7.110000000000000320e+00 3.658879999999999854e-12
7.129999999999999893e+00 3.421129999999999984e-12
7.150000000000000355e+00 3.198600000000000123e-12
7.169999999999999929e+00 2.990320000000000126e-12
7.190000000000000391e+00 2.795429999999999934e-12
7.209999999999999964e+00 2.613109999999999959e-12
7.230000000000000426e+00 2.442500000000000144e-12
7.259999999999999787e+00 2.282899999999999895e-12
7.280000000000000249e+00 2.133609999999999832e-12
7.299999999999999822e+00 1.993990000000000069e-12
7.320000000000000284e+00 1.863410000000000034e-12
7.339999999999999858e+00 1.741300000000000062e-12
7.360000000000000320e+00 1.627120000000000038e-12
7.379999999999999893e+00 1.520369999999999912e-12
7.400000000000000355e+00 1.420559999999999957e-12
7.419999999999999929e+00 1.327259999999999940e-12
7.440000000000000391e+00 1.240029999999999917e-12
7.459999999999999964e+00 1.158499999999999961e-12
7.480000000000000426e+00 1.082290000000000026e-12
7.500000000000000000e+00 1.011059999999999935e-12
7.519999999999999574e+00 9.444959999999999773e-13
7.540000000000000036e+00 8.822829999999999676e-13
7.559999999999999609e+00 8.241429999999999750e-13
7.580000000000000071e+00 7.698130000000000440e-13
7.599999999999999645e+00 7.190440000000000207e-13
7.620000000000000107e+00 6.716060000000000162e-13
7.639999999999999680e+00 6.272800000000000292e-13
7.660000000000000142e+00 5.858660000000000201e-13
7.679999999999999716e+00 5.471709999999999512e-13
7.700000000000000178e+00 5.110210000000000497e-13
7.719999999999999751e+00 4.772469999999999959e-13
7.740000000000000213e+00 4.456960000000000226e-13
7.759999999999999787e+00 4.162209999999999892e-13
7.780000000000000249e+00 3.886879999999999893e-13
7.799999999999999822e+00 3.629689999999999956e-13
7.820000000000000284e+00 3.389939999999999892e-13
7.839999999999999858e+00 3.165570000000000011e-13
7.860000000000000320e+00 2.956070000000000247e-13
7.879999999999999893e+00 2.760459999999999831e-13
7.900000000000000355e+00 2.577840000000000252e-13
7.919999999999999929e+00 2.407349999999999835e-13
7.940000000000000391e+00 2.248199999999999952e-13
7.959999999999999964e+00 2.099630000000000112e-13
7.980000000000000426e+00 1.960970000000000024e-13
8.000000000000000000e+00 1.831539999999999938e-13
8.019999999999999574e+00 1.710760000000000023e-13
8.039999999999999147e+00 1.598039999999999974e-13
8.060000000000000497e+00 1.492869999999999979e-13
8.080000000000000071e+00 1.394759999999999905e-13
8.099999999999999645e+00 1.303230000000000092e-13
8.119999999999999218e+00 1.217869999999999889e-13
8.140000000000000568e+00 1.138269999999999905e-13
8.160000000000000142e+00 1.064050000000000020e-13
8.179999999999999716e+00 9.948679999999999620e-14
8.199999999999999289e+00 9.303979999999999853e-14
8.220000000000000639e+00 8.703320000000000067e-14
8.240000000000000213e+00 8.143899999999999509e-14
8.259999999999999787e+00 7.622989999999999964e-14
8.279999999999999361e+00 7.138159999999999697e-14
8.300000000000000711e+00 6.687019999999999864e-14
8.320000000000000284e+00 6.267429999999999528e-14
8.339999999999999858e+00 5.877340000000000481e-14
8.359999999999999432e+00 5.514840000000000132e-14
8.380000000000000782e+00 5.178159999999999718e-14
8.400000000000000355e+00 4.865649999999999694e-14
8.419999999999999929e+00 4.575719999999999813e-14
8.439999999999999503e+00 4.306929999999999956e-14
8.460000000000000853e+00 4.057899999999999930e-14
8.480000000000000426e+00 3.827370000000000028e-14
8.500000000000000000e+00 3.614139999999999835e-14
