# log10(T) rate(cm^3/s)
# RecombRates
3.500000000000000000e+00 3.871920000000000005e-11
3.520000000000000018e+00 3.754369999999999723e-11
3.540000000000000036e+00 3.640190000000000305e-11
3.560000000000000053e+00 3.529290000000000202e-11
3.580000000000000071e+00 3.421569999999999849e-11
3.600000000000000089e+00 3.316940000000000284e-11
3.620000000000000107e+00 3.215329999999999871e-11
3.640000000000000124e+00 3.116639999999999693e-11
3.660000000000000142e+00 3.020810000000000010e-11
3.680000000000000160e+00 2.927739999999999963e-11
3.700000000000000178e+00 2.837359999999999857e-11
3.720000000000000195e+00 2.749609999999999953e-11
3.740000000000000213e+00 2.664399999999999996e-11
3.759999999999999787e+00 2.581659999999999967e-11
3.779999999999999805e+00 2.501330000000000127e-11
3.799999999999999822e+00 2.423340000000000133e-11
3.819999999999999840e+00 2.347619999999999967e-11
3.839999999999999858e+00 2.274119999999999846e-11
3.859999999999999876e+00 2.202770000000000074e-11
3.879999999999999893e+00 2.133509999999999943e-11
3.899999999999999911e+00 2.066280000000000037e-11
3.919999999999999929e+00 2.001019999999999970e-11
3.939999999999999947e+00 1.937689999999999915e-11
3.959999999999999964e+00 1.876219999999999855e-11
3.979999999999999982e+00 1.816569999999999963e-11
4.000000000000000000e+00 1.758679999999999853e-11
4.019999999999999574e+00 1.702510000000000023e-11
4.040000000000000036e+00 1.648000000000000086e-11
4.059999999999999609e+00 1.595119999999999851e-11
4.080000000000000071e+00 1.543819999999999858e-11
4.099999999999999645e+00 1.494059999999999957e-11
4.120000000000000107e+00 1.445809999999999955e-11
4.139999999999999680e+00 1.399039999999999984e-11
4.160000000000000142e+00 1.353750000000000043e-11
4.179999999999999716e+00 1.309949999999999926e-11
4.200000000000000178e+00 1.267650000000000076e-11
4.219999999999999751e+00 1.226950000000000058e-11
4.240000000000000213e+00 1.187939999999999965e-11
4.259999999999999787e+00 1.150809999999999940e-11
4.280000000000000249e+00 1.115819999999999985e-11
4.299999999999999822e+00 1.083310000000000076e-11
4.320000000000000284e+00 1.053739999999999991e-11
4.339999999999999858e+00 1.027700000000000074e-11
4.360000000000000320e+00 1.005890000000000029e-11
4.379999999999999893e+00 9.891749999999999730e-12
4.400000000000000355e+00 9.785370000000000339e-12
4.419999999999999929e+00 9.750969999999999597e-12
4.440000000000000391e+00 9.800929999999999921e-12
4.459999999999999964e+00 9.948550000000000053e-12
4.480000000000000426e+00 1.020790000000000056e-11
4.500000000000000000e+00 1.059340000000000048e-11
4.519999999999999574e+00 1.111940000000000046e-11
4.540000000000000036e+00 1.180050000000000005e-11
4.559999999999999609e+00 1.264580000000000010e-11
4.580000000000000071e+00 1.367810000000000005e-11
4.599999999999999645e+00 1.490470000000000050e-11
4.620000000000000107e+00 1.633699999999999875e-11
4.639999999999999680e+00 1.798550000000000086e-11
4.660000000000000142e+00 1.985939999999999917e-11
4.679999999999999716e+00 2.196680000000000047e-11
4.700000000000000178e+00 2.431460000000000062e-11
4.719999999999999751e+00 2.690860000000000027e-11
4.740000000000000213e+00 2.975290000000000098e-11
4.769999999999999574e+00 3.284990000000000203e-11
4.790000000000000036e+00 3.620020000000000079e-11
4.809999999999999609e+00 3.980189999999999906e-11
4.830000000000000071e+00 4.365049999999999702e-11
4.849999999999999645e+00 4.773810000000000315e-11
4.870000000000000107e+00 5.205330000000000237e-11
4.889999999999999680e+00 5.658100000000000215e-11
4.910000000000000142e+00 6.130220000000000106e-11
4.929999999999999716e+00 6.619340000000000429e-11
4.950000000000000178e+00 7.122679999999999696e-11
4.969999999999999751e+00 7.637099999999999921e-11
4.990000000000000213e+00 8.159110000000000117e-11
5.009999999999999787e+00 8.684830000000000345e-11
5.030000000000000249e+00 9.210209999999999466e-11
5.049999999999999822e+00 9.730970000000000571e-11
5.070000000000000284e+00 1.024279999999999977e-10
5.089999999999999858e+00 1.074110000000000027e-10
5.110000000000000320e+00 1.122190000000000056e-10
5.129999999999999893e+00 1.168070000000000083e-10
5.150000000000000355e+00 1.211379999999999905e-10
5.169999999999999929e+00 1.251740000000000012e-10
5.190000000000000391e+00 1.288829999999999984e-10
5.209999999999999964e+00 1.322359999999999919e-10
5.230000000000000426e+00 1.352090000000000084e-10
5.250000000000000000e+00 1.377839999999999969e-10
5.269999999999999574e+00 1.399450000000000012e-10
5.290000000000000036e+00 1.416829999999999956e-10
5.309999999999999609e+00 1.429939999999999976e-10
5.330000000000000071e+00 1.438780000000000071e-10
5.349999999999999645e+00 1.443390000000000069e-10
5.370000000000000107e+00 1.443870000000000050e-10
5.389999999999999680e+00 1.440329999999999926e-10
5.410000000000000142e+00 1.432940000000000120e-10
5.429999999999999716e+00 1.421889999999999936e-10
5.450000000000000178e+00 1.407369999999999970e-10
5.469999999999999751e+00 1.389619999999999953e-10
5.490000000000000213e+00 1.368889999999999964e-10
5.509999999999999787e+00 1.345430000000000078e-10
5.530000000000000249e+00 1.319499999999999941e-10
5.549999999999999822e+00 1.291359999999999974e-10
5.570000000000000284e+00 1.261279999999999909e-10
5.589999999999999858e+00 1.229519999999999907e-10
5.610000000000000320e+00 1.196330000000000045e-10
5.629999999999999893e+00 1.161950000000000056e-10
5.650000000000000355e+00 1.126630000000000017e-10
5.669999999999999929e+00 1.090580000000000048e-10
5.690000000000000391e+00 1.054010000000000013e-10
5.709999999999999964e+00 1.017119999999999947e-10
5.730000000000000426e+00 9.800959999999999468e-11
5.750000000000000000e+00 9.431010000000000140e-11
5.769999999999999574e+00 9.062870000000000055e-11
5.790000000000000036e+00 8.697930000000000279e-11
5.809999999999999609e+00 8.337430000000000593e-11
5.830000000000000071e+00 7.982450000000000181e-11
5.849999999999999645e+00 7.633960000000000644e-11
5.870000000000000107e+00 7.292799999999999621e-11
5.889999999999999680e+00 6.959679999999999845e-11
5.910000000000000142e+00 6.635189999999999397e-11
5.929999999999999716e+00 6.319829999999999982e-11
5.950000000000000178e+00 6.013999999999999860e-11
5.969999999999999751e+00 5.718000000000000314e-11
5.990000000000000213e+00 5.432049999999999740e-11
6.009999999999999787e+00 5.156290000000000115e-11
6.030000000000000249e+00 4.890809999999999756e-11
6.049999999999999822e+00 4.635629999999999868e-11
6.070000000000000284e+00 4.390700000000000022e-11
6.089999999999999858e+00 4.155939999999999919e-11
6.110000000000000320e+00 3.931240000000000039e-11
6.129999999999999893e+00 3.716419999999999870e-11
6.150000000000000355e+00 3.511300000000000194e-11
6.169999999999999929e+00 3.315650000000000074e-11
6.190000000000000391e+00 3.129239999999999862e-11
6.209999999999999964e+00 2.951810000000000041e-11
6.230000000000000426e+00 2.783089999999999847e-11
6.250000000000000000e+00 2.622789999999999894e-11
6.269999999999999574e+00 2.470630000000000106e-11
6.290000000000000036e+00 2.326320000000000128e-11
6.309999999999999609e+00 2.189550000000000015e-11
6.330000000000000071e+00 2.060020000000000102e-11
6.349999999999999645e+00 1.937440000000000032e-11
6.370000000000000107e+00 1.821510000000000142e-11
6.389999999999999680e+00 1.711940000000000074e-11
6.410000000000000142e+00 1.608450000000000078e-11
6.429999999999999716e+00 1.510750000000000121e-11
6.450000000000000178e+00 1.418569999999999922e-11
6.469999999999999751e+00 1.331609999999999977e-11
6.490000000000000213e+00 1.249670000000000026e-11
6.509999999999999787e+00 1.172469999999999991e-11
6.530000000000000249e+00 1.099769999999999948e-11
6.549999999999999822e+00 1.031339999999999925e-11
6.570000000000000284e+00 9.669499999999999541e-12
6.589999999999999858e+00 9.063899999999999779e-12
6.610000000000000320e+00 8.494499999999999398e-12
6.629999999999999893e+00 7.959339999999999485e-12
6.650000000000000355e+00 7.456540000000000456e-12
6.669999999999999929e+00 6.984270000000000087e-12
6.690000000000000391e+00 6.540809999999999874e-12
6.709999999999999964e+00 6.124529999999999956e-12
6.730000000000000426e+00 5.733869999999999679e-12
6.750000000000000000e+00 5.367350000000000147e-12
6.769999999999999574e+00 5.023539999999999817e-12
6.790000000000000036e+00 4.701140000000000302e-12
6.809999999999999609e+00 4.398870000000000218e-12
6.830000000000000071e+00 4.115540000000000051e-12
6.849999999999999645e+00 3.850020000000000189e-12
6.870000000000000107e+00 3.601229999999999994e-12
6.889999999999999680e+00 3.368160000000000059e-12
6.910000000000000142e+00 3.149860000000000071e-12
6.929999999999999716e+00 2.945429999999999901e-12
6.950000000000000178e+00 2.754009999999999894e-12
6.969999999999999751e+00 2.574820000000000130e-12
6.990000000000000213e+00 2.407079999999999877e-12
7.009999999999999787e+00 2.250099999999999874e-12
7.030000000000000249e+00 2.103190000000000048e-12
7.049999999999999822e+00 1.965740000000000063e-12
7.070000000000000284e+00 1.837139999999999985e-12
7.089999999999999858e+00 1.716849999999999899e-12
7.110000000000000320e+00 1.604330000000000092e-12
7.129999999999999893e+00 1.499099999999999943e-12
7.150000000000000355e+00 1.400689999999999962e-12
7.169999999999999929e+00 1.308669999999999916e-12
7.190000000000000391e+00 1.222630000000000012e-12
7.209999999999999964e+00 1.142190000000000003e-12
7.230000000000000426e+00 1.066990000000000081e-12
7.259999999999999787e+00 9.966939999999999534e-13
7.280000000000000249e+00 9.309910000000000262e-13
7.299999999999999822e+00 8.695830000000000318e-13
7.320000000000000284e+00 8.121909999999999670e-13
7.339999999999999858e+00 7.585570000000000362e-13
7.360000000000000320e+00 7.084399999999999580e-13
7.379999999999999893e+00 6.616100000000000455e-13
7.400000000000000355e+00 6.178540000000000247e-13
7.419999999999999929e+00 5.769719999999999572e-13
7.440000000000000391e+00 5.387799999999999519e-13
7.459999999999999964e+00 5.031339999999999845e-13
7.480000000000000426e+00 4.698029999999999925e-13
7.500000000000000000e+00 4.386719999999999811e-13
7.519999999999999574e+00 4.095990000000000200e-13
7.540000000000000036e+00 3.824489999999999792e-13
7.559999999999999609e+00 3.570950000000000046e-13
7.580000000000000071e+00 3.334200000000000071e-13
7.599999999999999645e+00 3.113150000000000220e-13
7.620000000000000107e+00 2.906759999999999925e-13
7.639999999999999680e+00 2.714060000000000150e-13
7.660000000000000142e+00 2.534180000000000012e-13
7.679999999999999716e+00 2.366250000000000141e-13
7.700000000000000178e+00 2.209490000000000110e-13
7.719999999999999751e+00 2.063180000000000050e-13
7.740000000000000213e+00 1.926629999999999991e-13
7.759999999999999787e+00 1.799200000000000048e-13
7.780000000000000249e+00 1.680289999999999952e-13
7.799999999999999822e+00 1.569340000000000056e-13
7.820000000000000284e+00 1.465830000000000076e-13
7.839999999999999858e+00 1.369280000000000099e-13
7.860000000000000320e+00 1.279219999999999925e-13
7.879999999999999893e+00 1.195229999999999947e-13
7.900000000000000355e+00 1.116919999999999950e-13
7.919999999999999929e+00 1.043909999999999941e-13
7.940000000000000391e+00 9.758620000000000629e-14
7.959999999999999964e+00 9.124390000000000261e-14
7.980000000000000426e+00 8.533440000000000391e-14
8.000000000000000000e+00 7.982929999999999893e-14
8.019999999999999574e+00 7.470189999999999848e-14
8.039999999999999147e+00 6.992769999999999596e-14
8.060000000000000497e+00 6.548330000000000129e-14
8.080000000000000071e+00 6.134749999999999431e-14
8.099999999999999645e+00 5.749960000000000371e-14
8.119999999999999218e+00 5.392110000000000285e-14
8.140000000000000568e+00 5.059390000000000038e-14
8.160000000000000142e+00 4.750179999999999733e-14
8.179999999999999716e+00 4.462930000000000124e-14
8.199999999999999289e+00 4.196199999999999831e-14
8.220000000000000639e+00 3.948640000000000202e-14
8.240000000000000213e+00 3.718999999999999729e-14
8.259999999999999787e+00 3.506079999999999890e-14
8.279999999999999361e+00 3.308820000000000309e-14
8.300000000000000711e+00 3.126139999999999794e-14
8.320000000000000284e+00 2.957109999999999806e-14
8.339999999999999858e+00 2.800829999999999878e-14
8.359999999999999432e+00 2.656450000000000005e-14
8.380000000000000782e+00 2.523180000000000109e-14
8.400000000000000355e+00 2.400309999999999910e-14
8.419999999999999929e+00 2.287130000000000070e-14
8.439999999999999503e+00 2.183000000000000013e-14
8.460000000000000853e+00 2.087000000000000031e-14
8.480000000000000426e+00 1.999169999999999864e-14
8.500000000000000000e+00 1.918699999999999880e-14
