# log10(T) rate(cm^3/s)
# RecombRates
3.500000000000000000e+00 1.602460000000000068e-10
3.520000000000000018e+00 1.555949999999999936e-10
3.540000000000000036e+00 1.510740000000000100e-10
3.560000000000000053e+00 1.466789999999999957e-10
3.580000000000000071e+00 1.424059999999999940e-10
3.600000000000000089e+00 1.382520000000000050e-10
3.620000000000000107e+00 1.342129999999999945e-10
3.640000000000000124e+00 1.302880000000000054e-10
3.660000000000000142e+00 1.264719999999999951e-10
3.680000000000000160e+00 1.227619999999999893e-10
3.700000000000000178e+00 1.191570000000000053e-10
3.720000000000000195e+00 1.156520000000000004e-10
3.740000000000000213e+00 1.122449999999999960e-10
3.759999999999999787e+00 1.089349999999999966e-10
3.779999999999999805e+00 1.057169999999999980e-10
3.799999999999999822e+00 1.025889999999999959e-10
3.819999999999999840e+00 9.954979999999999573e-11
3.839999999999999858e+00 9.659610000000000519e-11
3.859999999999999876e+00 9.372549999999999600e-11
3.879999999999999893e+00 9.093609999999999579e-11
3.899999999999999911e+00 8.822550000000000207e-11
3.919999999999999929e+00 8.559149999999999855e-11
3.939999999999999947e+00 8.303209999999999392e-11
3.959999999999999964e+00 8.054529999999999689e-11
3.979999999999999982e+00 7.812899999999999717e-11
4.000000000000000000e+00 7.578140000000000261e-11
4.019999999999999574e+00 7.350049999999999605e-11
4.040000000000000036e+00 7.128460000000000425e-11
4.059999999999999609e+00 6.913180000000000316e-11
4.080000000000000071e+00 6.704049999999999974e-11
4.099999999999999645e+00 6.500899999999999492e-11
4.120000000000000107e+00 6.303549999999999651e-11
4.139999999999999680e+00 6.111850000000000458e-11
4.160000000000000142e+00 5.925659999999999936e-11
4.179999999999999716e+00 5.744800000000000159e-11
4.200000000000000178e+00 5.569149999999999711e-11
4.219999999999999751e+00 5.398549999999999933e-11
4.240000000000000213e+00 5.232860000000000141e-11
4.259999999999999787e+00 5.071960000000000211e-11
4.280000000000000249e+00 4.915700000000000148e-11
4.299999999999999822e+00 4.763969999999999783e-11
4.320000000000000284e+00 4.616619999999999770e-11
4.339999999999999858e+00 4.473559999999999853e-11
4.360000000000000320e+00 4.334640000000000037e-11
4.379999999999999893e+00 4.199770000000000067e-11
4.400000000000000355e+00 4.068819999999999863e-11
4.419999999999999929e+00 3.941689999999999858e-11
4.440000000000000391e+00 3.818269999999999885e-11
4.459999999999999964e+00 3.698469999999999689e-11
4.480000000000000426e+00 3.582169999999999791e-11
4.500000000000000000e+00 3.469279999999999935e-11
4.519999999999999574e+00 3.359709999999999868e-11
4.540000000000000036e+00 3.253360000000000023e-11
4.559999999999999609e+00 3.150140000000000146e-11
4.580000000000000071e+00 3.049979999999999894e-11
4.599999999999999645e+00 2.952769999999999746e-11
4.620000000000000107e+00 2.858440000000000006e-11
4.639999999999999680e+00 2.766900000000000095e-11
4.660000000000000142e+00 2.678079999999999995e-11
4.679999999999999716e+00 2.591910000000000009e-11
4.700000000000000178e+00 2.508299999999999884e-11
4.719999999999999751e+00 2.427200000000000159e-11
4.740000000000000213e+00 2.348519999999999933e-11
4.769999999999999574e+00 2.272210000000000069e-11
4.790000000000000036e+00 2.198199999999999903e-11
4.809999999999999609e+00 2.126439999999999974e-11
4.830000000000000071e+00 2.056869999999999898e-11
4.849999999999999645e+00 1.989460000000000128e-11
4.870000000000000107e+00 1.924190000000000104e-11
4.889999999999999680e+00 1.861020000000000001e-11
4.910000000000000142e+00 1.799970000000000054e-11
4.929999999999999716e+00 1.741049999999999897e-11
4.950000000000000178e+00 1.684300000000000002e-11
4.969999999999999751e+00 1.629800000000000023e-11
4.990000000000000213e+00 1.577639999999999889e-11
5.009999999999999787e+00 1.527950000000000007e-11
5.030000000000000249e+00 1.480870000000000091e-11
5.049999999999999822e+00 1.436589999999999960e-11
5.070000000000000284e+00 1.395310000000000039e-11
5.089999999999999858e+00 1.357240000000000061e-11
5.110000000000000320e+00 1.322609999999999996e-11
5.129999999999999893e+00 1.291640000000000018e-11
5.150000000000000355e+00 1.264540000000000022e-11
5.169999999999999929e+00 1.241499999999999991e-11
5.190000000000000391e+00 1.222680000000000037e-11
5.209999999999999964e+00 1.208180000000000048e-11
5.230000000000000426e+00 1.198049999999999969e-11
5.250000000000000000e+00 1.192310000000000036e-11
5.269999999999999574e+00 1.190869999999999994e-11
5.290000000000000036e+00 1.193599999999999922e-11
5.309999999999999609e+00 1.200279999999999971e-11
5.330000000000000071e+00 1.210619999999999945e-11
5.349999999999999645e+00 1.224299999999999943e-11
5.370000000000000107e+00 1.240900000000000014e-11
5.389999999999999680e+00 1.259989999999999925e-11
5.410000000000000142e+00 1.281029999999999924e-11
5.429999999999999716e+00 1.303579999999999985e-11
5.450000000000000178e+00 1.327079999999999955e-11
5.469999999999999751e+00 1.351000000000000039e-11
5.490000000000000213e+00 1.374839999999999986e-11
5.509999999999999787e+00 1.398090000000000074e-11
5.530000000000000249e+00 1.420320000000000071e-11
5.549999999999999822e+00 1.441119999999999982e-11
5.570000000000000284e+00 1.460159999999999950e-11
5.589999999999999858e+00 1.477170000000000016e-11
5.610000000000000320e+00 1.491969999999999993e-11
5.629999999999999893e+00 1.504459999999999993e-11
5.650000000000000355e+00 1.514640000000000017e-11
5.669999999999999929e+00 1.522590000000000038e-11
5.690000000000000391e+00 1.528499999999999879e-11
5.709999999999999964e+00 1.532649999999999937e-11
5.730000000000000426e+00 1.535399999999999940e-11
5.750000000000000000e+00 1.537189999999999915e-11
5.769999999999999574e+00 1.538519999999999951e-11
5.790000000000000036e+00 1.539939999999999919e-11
5.809999999999999609e+00 1.542029999999999883e-11
5.830000000000000071e+00 1.545359999999999950e-11
5.849999999999999645e+00 1.550520000000000142e-11
5.870000000000000107e+00 1.558030000000000138e-11
5.889999999999999680e+00 1.568370000000000112e-11
5.910000000000000142e+00 1.581929999999999985e-11
5.929999999999999716e+00 1.599029999999999983e-11
5.950000000000000178e+00 1.619849999999999969e-11
5.969999999999999751e+00 1.644490000000000155e-11
5.990000000000000213e+00 1.672900000000000112e-11
6.009999999999999787e+00 1.704890000000000019e-11
6.030000000000000249e+00 1.740239999999999863e-11
6.049999999999999822e+00 1.778540000000000134e-11
6.070000000000000284e+00 1.819310000000000010e-11
6.089999999999999858e+00 1.861989999999999985e-11
6.110000000000000320e+00 1.905920000000000021e-11
6.129999999999999893e+00 1.950459999999999991e-11
6.150000000000000355e+00 1.994890000000000116e-11
6.169999999999999929e+00 2.038499999999999927e-11
6.190000000000000391e+00 2.080589999999999882e-11
6.209999999999999964e+00 2.120489999999999985e-11
6.230000000000000426e+00 2.157560000000000108e-11
6.250000000000000000e+00 2.191209999999999909e-11
6.269999999999999574e+00 2.220939999999999945e-11
6.290000000000000036e+00 2.246279999999999997e-11
6.309999999999999609e+00 2.266879999999999970e-11
6.330000000000000071e+00 2.282419999999999962e-11
6.349999999999999645e+00 2.292710000000000153e-11
6.370000000000000107e+00 2.297599999999999903e-11
6.389999999999999680e+00 2.297019999999999839e-11
6.410000000000000142e+00 2.291030000000000023e-11
6.429999999999999716e+00 2.279679999999999915e-11
6.450000000000000178e+00 2.263130000000000112e-11
6.469999999999999751e+00 2.241560000000000154e-11
6.490000000000000213e+00 2.215219999999999925e-11
6.509999999999999787e+00 2.184379999999999867e-11
6.530000000000000249e+00 2.149370000000000160e-11
6.549999999999999822e+00 2.110500000000000105e-11
6.570000000000000284e+00 2.068149999999999987e-11
6.589999999999999858e+00 2.022659999999999946e-11
6.610000000000000320e+00 1.974409999999999945e-11
6.629999999999999893e+00 1.923750000000000078e-11
6.650000000000000355e+00 1.871069999999999943e-11
6.669999999999999929e+00 1.816700000000000044e-11
6.690000000000000391e+00 1.760990000000000153e-11
6.709999999999999964e+00 1.704259999999999849e-11
6.730000000000000426e+00 1.646830000000000002e-11
6.750000000000000000e+00 1.588980000000000041e-11
6.769999999999999574e+00 1.530990000000000043e-11
6.790000000000000036e+00 1.473099999999999933e-11
6.809999999999999609e+00 1.415549999999999961e-11
6.830000000000000071e+00 1.358529999999999948e-11
6.849999999999999645e+00 1.302239999999999993e-11
6.870000000000000107e+00 1.246829999999999929e-11
6.889999999999999680e+00 1.192460000000000030e-11
6.910000000000000142e+00 1.139249999999999937e-11
6.929999999999999716e+00 1.087300000000000022e-11
6.950000000000000178e+00 1.036710000000000012e-11
6.969999999999999751e+00 9.875589999999999524e-12
6.990000000000000213e+00 9.398420000000000256e-12
7.009999999999999787e+00 8.937009999999999701e-12
7.030000000000000249e+00 8.491239999999999672e-12
7.049999999999999822e+00 8.061360000000000700e-12
7.070000000000000284e+00 7.647480000000000045e-12
7.089999999999999858e+00 7.249649999999999911e-12
7.110000000000000320e+00 6.867819999999999710e-12
7.129999999999999893e+00 6.501850000000000210e-12
7.150000000000000355e+00 6.151510000000000311e-12
7.169999999999999929e+00 5.816569999999999721e-12
7.190000000000000391e+00 5.496729999999999743e-12
7.209999999999999964e+00 5.191630000000000164e-12
7.230000000000000426e+00 4.900889999999999729e-12
7.259999999999999787e+00 4.624110000000000175e-12
7.280000000000000249e+00 4.360879999999999892e-12
7.299999999999999822e+00 4.110760000000000146e-12
7.320000000000000284e+00 3.873280000000000233e-12
7.339999999999999858e+00 3.647999999999999804e-12
7.360000000000000320e+00 3.434450000000000174e-12
7.379999999999999893e+00 3.232169999999999949e-12
7.400000000000000355e+00 3.040739999999999825e-12
7.419999999999999929e+00 2.859619999999999886e-12
7.440000000000000391e+00 2.688400000000000136e-12
7.459999999999999964e+00 2.526630000000000110e-12
7.480000000000000426e+00 2.373879999999999978e-12
7.500000000000000000e+00 2.229719999999999914e-12
7.519999999999999574e+00 2.093750000000000040e-12
7.540000000000000036e+00 1.965549999999999839e-12
7.559999999999999609e+00 1.844740000000000074e-12
7.580000000000000071e+00 1.730950000000000011e-12
7.599999999999999645e+00 1.623800000000000008e-12
7.620000000000000107e+00 1.522960000000000005e-12
7.639999999999999680e+00 1.428069999999999993e-12
7.660000000000000142e+00 1.338839999999999978e-12
7.679999999999999716e+00 1.254939999999999901e-12
7.700000000000000178e+00 1.176090000000000091e-12
7.719999999999999751e+00 1.101999999999999949e-12
7.740000000000000213e+00 1.032410000000000041e-12
7.759999999999999787e+00 9.670540000000000918e-13
7.780000000000000249e+00 9.057020000000000115e-13
7.799999999999999822e+00 8.481170000000000100e-13
7.820000000000000284e+00 7.940839999999999716e-13
7.839999999999999858e+00 7.433940000000000129e-13
7.860000000000000320e+00 6.958509999999999801e-13
7.879999999999999893e+00 6.512690000000000394e-13
7.900000000000000355e+00 6.094730000000000426e-13
7.919999999999999929e+00 5.702939999999999729e-13
7.940000000000000391e+00 5.335789999999999623e-13
7.959999999999999964e+00 4.991750000000000414e-13
7.980000000000000426e+00 4.669459999999999573e-13
8.000000000000000000e+00 4.368160000000000140e-13
8.019999999999999574e+00 4.085469999999999958e-13
8.039999999999999147e+00 3.820840000000000105e-13
8.060000000000000497e+00 3.573149999999999774e-13
8.080000000000000071e+00 3.341390000000000063e-13
8.099999999999999645e+00 3.124519999999999898e-13
8.119999999999999218e+00 2.921649999999999976e-13
8.140000000000000568e+00 2.731879999999999765e-13
8.160000000000000142e+00 2.554409999999999917e-13
8.179999999999999716e+00 2.388449999999999784e-13
8.199999999999999289e+00 2.233289999999999968e-13
8.220000000000000639e+00 2.088249999999999962e-13
8.240000000000000213e+00 1.952700000000000101e-13
8.259999999999999787e+00 1.826029999999999894e-13
8.279999999999999361e+00 1.707689999999999916e-13
8.300000000000000711e+00 1.597149999999999914e-13
8.320000000000000284e+00 1.493929999999999977e-13
8.339999999999999858e+00 1.397549999999999937e-13
8.359999999999999432e+00 1.307599999999999901e-13
8.380000000000000782e+00 1.223660000000000008e-13
8.400000000000000355e+00 1.145359999999999978e-13
8.419999999999999929e+00 1.072340000000000003e-13
8.439999999999999503e+00 1.004270000000000047e-13
8.460000000000000853e+00 9.408309999999999873e-14
8.480000000000000426e+00 8.817330000000000356e-14
8.500000000000000000e+00 8.267029999999999914e-14
