# log10(T) rate(cm^3/s)
# RecombRates
3.500000000000000000e+00 6.073680000000000268e-10
3.520000000000000018e+00 5.905219999999999590e-10
3.540000000000000036e+00 5.741289999999999517e-10
3.560000000000000053e+00 5.581780000000000137e-10
3.580000000000000071e+00 5.426560000000000336e-10
3.600000000000000089e+00 5.275540000000000375e-10
3.620000000000000107e+00 5.128580000000000089e-10
3.640000000000000124e+00 4.985589999999999738e-10
3.660000000000000142e+00 4.846460000000000447e-10
3.680000000000000160e+00 4.711100000000000409e-10
3.700000000000000178e+00 4.579390000000000148e-10
3.720000000000000195e+00 4.451250000000000009e-10
3.740000000000000213e+00 4.326580000000000170e-10
3.759999999999999787e+00 4.205289999999999858e-10
3.779999999999999805e+00 4.087289999999999852e-10
3.799999999999999822e+00 3.972489999999999896e-10
3.819999999999999840e+00 3.860809999999999823e-10
3.839999999999999858e+00 3.752159999999999893e-10
3.859999999999999876e+00 3.646470000000000023e-10
3.879999999999999893e+00 3.543649999999999959e-10
3.899999999999999911e+00 3.443640000000000218e-10
3.919999999999999929e+00 3.346339999999999944e-10
3.939999999999999947e+00 3.251709999999999827e-10
3.959999999999999964e+00 3.159650000000000044e-10
3.979999999999999982e+00 3.070110000000000165e-10
4.000000000000000000e+00 2.983010000000000021e-10
4.019999999999999574e+00 2.898300000000000218e-10
4.040000000000000036e+00 2.815910000000000154e-10
4.059999999999999609e+00 2.735769999999999746e-10
4.080000000000000071e+00 2.657830000000000116e-10
4.099999999999999645e+00 2.582030000000000233e-10
4.120000000000000107e+00 2.508310000000000099e-10
4.139999999999999680e+00 2.436610000000000233e-10
4.160000000000000142e+00 2.366889999999999775e-10
4.179999999999999716e+00 2.299079999999999933e-10
4.200000000000000178e+00 2.233140000000000107e-10
4.219999999999999751e+00 2.169020000000000126e-10
4.240000000000000213e+00 2.106670000000000078e-10
4.259999999999999787e+00 2.046040000000000050e-10
4.280000000000000249e+00 1.987079999999999873e-10
4.299999999999999822e+00 1.929760000000000065e-10
4.320000000000000284e+00 1.874020000000000111e-10
4.339999999999999858e+00 1.819830000000000012e-10
4.360000000000000320e+00 1.767140000000000114e-10
4.379999999999999893e+00 1.715910000000000075e-10
4.400000000000000355e+00 1.666100000000000068e-10
4.419999999999999929e+00 1.617680000000000094e-10
4.440000000000000391e+00 1.570599999999999984e-10
4.459999999999999964e+00 1.524840000000000082e-10
4.480000000000000426e+00 1.480349999999999960e-10
4.500000000000000000e+00 1.437099999999999876e-10
4.519999999999999574e+00 1.395060000000000092e-10
4.540000000000000036e+00 1.354190000000000004e-10
4.559999999999999609e+00 1.314469999999999960e-10
4.580000000000000071e+00 1.275859999999999873e-10
4.599999999999999645e+00 1.238330000000000003e-10
4.620000000000000107e+00 1.201859999999999921e-10
4.639999999999999680e+00 1.166410000000000059e-10
4.660000000000000142e+00 1.131950000000000031e-10
4.679999999999999716e+00 1.098470000000000008e-10
4.700000000000000178e+00 1.065919999999999949e-10
4.719999999999999751e+00 1.034299999999999985e-10
4.740000000000000213e+00 1.003570000000000030e-10
4.769999999999999574e+00 9.737039999999999393e-11
4.790000000000000036e+00 9.446849999999999798e-11
4.809999999999999609e+00 9.164879999999999375e-11
4.830000000000000071e+00 8.890890000000000459e-11
4.849999999999999645e+00 8.624680000000000041e-11
4.870000000000000107e+00 8.366030000000000371e-11
4.889999999999999680e+00 8.114730000000000422e-11
4.910000000000000142e+00 7.870579999999999771e-11
4.929999999999999716e+00 7.633389999999999890e-11
4.950000000000000178e+00 7.402969999999999666e-11
4.969999999999999751e+00 7.179130000000000571e-11
4.990000000000000213e+00 6.961689999999999511e-11
5.009999999999999787e+00 6.750469999999999851e-11
5.030000000000000249e+00 6.545309999999999703e-11
5.049999999999999822e+00 6.346029999999999850e-11
5.070000000000000284e+00 6.152480000000000296e-11
5.089999999999999858e+00 5.964500000000000445e-11
5.110000000000000320e+00 5.781919999999999742e-11
5.129999999999999893e+00 5.604620000000000003e-11
5.150000000000000355e+00 5.432430000000000027e-11
5.169999999999999929e+00 5.265219999999999733e-11
5.190000000000000391e+00 5.102839999999999772e-11
5.209999999999999964e+00 4.945179999999999978e-11
5.230000000000000426e+00 4.792089999999999708e-11
5.250000000000000000e+00 4.643440000000000175e-11
5.269999999999999574e+00 4.499129999999999874e-11
5.290000000000000036e+00 4.359010000000000103e-11
5.309999999999999609e+00 4.222989999999999962e-11
5.330000000000000071e+00 4.090940000000000015e-11
5.349999999999999645e+00 3.962750000000000093e-11
5.370000000000000107e+00 3.838319999999999986e-11
5.389999999999999680e+00 3.717540000000000172e-11
5.410000000000000142e+00 3.600309999999999792e-11
5.429999999999999716e+00 3.486529999999999927e-11
5.450000000000000178e+00 3.376099999999999720e-11
5.469999999999999751e+00 3.268930000000000208e-11
5.490000000000000213e+00 3.164929999999999844e-11
5.509999999999999787e+00 3.064010000000000310e-11
5.530000000000000249e+00 2.966080000000000060e-11
5.549999999999999822e+00 2.871060000000000087e-11
5.570000000000000284e+00 2.778870000000000093e-11
5.589999999999999858e+00 2.689420000000000146e-11
5.610000000000000320e+00 2.602639999999999904e-11
5.629999999999999893e+00 2.518459999999999994e-11
5.650000000000000355e+00 2.436800000000000118e-11
5.669999999999999929e+00 2.357589999999999934e-11
5.690000000000000391e+00 2.280760000000000068e-11
5.709999999999999964e+00 2.206239999999999856e-11
5.730000000000000426e+00 2.133979999999999839e-11
5.750000000000000000e+00 2.063890000000000084e-11
5.769999999999999574e+00 1.995930000000000119e-11
5.790000000000000036e+00 1.930029999999999926e-11
5.809999999999999609e+00 1.866130000000000087e-11
5.830000000000000071e+00 1.804169999999999895e-11
5.849999999999999645e+00 1.744109999999999846e-11
5.870000000000000107e+00 1.685879999999999921e-11
5.889999999999999680e+00 1.629439999999999972e-11
5.910000000000000142e+00 1.574729999999999935e-11
5.929999999999999716e+00 1.521700000000000029e-11
5.950000000000000178e+00 1.470300000000000147e-11
5.969999999999999751e+00 1.420499999999999935e-11
5.990000000000000213e+00 1.372230000000000020e-11
6.009999999999999787e+00 1.325470000000000006e-11
6.030000000000000249e+00 1.280159999999999990e-11
6.049999999999999822e+00 1.236259999999999985e-11
6.070000000000000284e+00 1.193730000000000004e-11
6.089999999999999858e+00 1.152530000000000058e-11
6.110000000000000320e+00 1.112629999999999955e-11
6.129999999999999893e+00 1.073990000000000031e-11
6.150000000000000355e+00 1.036560000000000018e-11
6.169999999999999929e+00 1.000320000000000003e-11
6.190000000000000391e+00 9.652250000000000195e-12
6.209999999999999964e+00 9.312489999999999228e-12
6.230000000000000426e+00 8.983559999999999336e-12
6.250000000000000000e+00 8.665139999999999972e-12
6.269999999999999574e+00 8.356949999999999444e-12
6.290000000000000036e+00 8.058659999999999510e-12
6.309999999999999609e+00 7.769999999999999405e-12
6.330000000000000071e+00 7.490670000000000433e-12
6.349999999999999645e+00 7.220410000000000331e-12
6.370000000000000107e+00 6.958960000000000066e-12
6.389999999999999680e+00 6.706040000000000373e-12
6.410000000000000142e+00 6.461420000000000149e-12
6.429999999999999716e+00 6.224849999999999673e-12
6.450000000000000178e+00 5.996100000000000270e-12
6.469999999999999751e+00 5.774909999999999674e-12
6.490000000000000213e+00 5.560879999999999626e-12
6.509999999999999787e+00 5.354399999999999884e-12
6.530000000000000249e+00 5.155040000000000216e-12
6.549999999999999822e+00 4.962490000000000194e-12
6.570000000000000284e+00 4.776570000000000113e-12
6.589999999999999858e+00 4.597139999999999938e-12
6.610000000000000320e+00 4.424120000000000338e-12
6.629999999999999893e+00 4.257439999999999679e-12
6.650000000000000355e+00 4.097059999999999912e-12
6.669999999999999929e+00 3.942970000000000111e-12
6.690000000000000391e+00 3.795129999999999804e-12
6.709999999999999964e+00 3.653539999999999798e-12
6.730000000000000426e+00 3.518209999999999809e-12
6.750000000000000000e+00 3.389109999999999884e-12
6.769999999999999574e+00 3.266240000000000025e-12
6.790000000000000036e+00 3.149569999999999877e-12
6.809999999999999609e+00 3.039060000000000179e-12
6.830000000000000071e+00 2.934659999999999937e-12
6.849999999999999645e+00 2.836259999999999872e-12
6.870000000000000107e+00 2.743749999999999896e-12
6.889999999999999680e+00 2.656989999999999970e-12
6.910000000000000142e+00 2.575770000000000040e-12
6.929999999999999716e+00 2.499890000000000165e-12
6.950000000000000178e+00 2.429069999999999867e-12
6.969999999999999751e+00 2.363029999999999878e-12
6.990000000000000213e+00 2.301450000000000054e-12
7.009999999999999787e+00 2.243979999999999896e-12
7.030000000000000249e+00 2.190270000000000117e-12
7.049999999999999822e+00 2.139930000000000152e-12
7.070000000000000284e+00 2.092590000000000073e-12
7.089999999999999858e+00 2.047860000000000121e-12
7.110000000000000320e+00 2.005359999999999848e-12
7.129999999999999893e+00 1.964739999999999967e-12
7.150000000000000355e+00 1.925639999999999861e-12
7.169999999999999929e+00 1.887740000000000194e-12
7.190000000000000391e+00 1.850749999999999965e-12
7.209999999999999964e+00 1.814379999999999989e-12
7.230000000000000426e+00 1.778410000000000093e-12
7.259999999999999787e+00 1.742609999999999983e-12
7.280000000000000249e+00 1.706829999999999907e-12
7.299999999999999822e+00 1.670909999999999996e-12
7.320000000000000284e+00 1.634750000000000077e-12
7.339999999999999858e+00 1.598260000000000098e-12
7.360000000000000320e+00 1.561390000000000075e-12
7.379999999999999893e+00 1.524110000000000056e-12
7.400000000000000355e+00 1.486420000000000042e-12
7.419999999999999929e+00 1.448329999999999949e-12
7.440000000000000391e+00 1.409869999999999929e-12
7.459999999999999964e+00 1.370210000000000076e-12
7.480000000000000426e+00 1.331130000000000004e-12
7.500000000000000000e+00 1.291680000000000005e-12
7.519999999999999574e+00 1.252030000000000068e-12
7.540000000000000036e+00 1.212329999999999945e-12
7.559999999999999609e+00 1.172700000000000042e-12
7.580000000000000071e+00 1.133230000000000009e-12
7.599999999999999645e+00 1.094009999999999899e-12
7.620000000000000107e+00 1.055120000000000052e-12
7.639999999999999680e+00 1.016639999999999998e-12
7.660000000000000142e+00 9.786510000000000473e-13
7.679999999999999716e+00 9.412060000000000993e-13
7.700000000000000178e+00 9.043760000000000432e-13
7.719999999999999751e+00 8.682160000000000236e-13
7.740000000000000213e+00 8.327839999999999985e-13
7.759999999999999787e+00 7.981270000000000382e-13
7.780000000000000249e+00 7.642880000000000246e-13
7.799999999999999822e+00 7.313059999999999537e-13
7.820000000000000284e+00 6.992130000000000217e-13
7.839999999999999858e+00 6.680340000000000189e-13
7.860000000000000320e+00 6.377919999999999949e-13
7.879999999999999893e+00 6.085009999999999534e-13
7.900000000000000355e+00 5.801740000000000278e-13
7.919999999999999929e+00 5.528150000000000027e-13
7.940000000000000391e+00 5.264260000000000229e-13
7.959999999999999964e+00 5.010039999999999723e-13
7.980000000000000426e+00 4.765419999999999499e-13
8.000000000000000000e+00 4.530310000000000111e-13
8.019999999999999574e+00 4.304580000000000223e-13
8.039999999999999147e+00 4.088069999999999866e-13
8.060000000000000497e+00 3.880600000000000146e-13
8.080000000000000071e+00 3.681990000000000147e-13
8.099999999999999645e+00 3.492009999999999880e-13
8.119999999999999218e+00 3.310440000000000079e-13
8.140000000000000568e+00 3.137029999999999811e-13
8.160000000000000142e+00 2.971550000000000096e-13
8.179999999999999716e+00 2.813739999999999782e-13
8.199999999999999289e+00 2.663340000000000241e-13
8.220000000000000639e+00 2.520100000000000036e-13
8.240000000000000213e+00 2.383760000000000033e-13
8.259999999999999787e+00 2.254060000000000091e-13
8.279999999999999361e+00 2.130740000000000067e-13
8.300000000000000711e+00 2.013560000000000005e-13
8.320000000000000284e+00 1.902250000000000048e-13
8.339999999999999858e+00 1.796589999999999921e-13
8.359999999999999432e+00 1.696329999999999952e-13
8.380000000000000782e+00 1.601250000000000119e-13
8.400000000000000355e+00 1.511109999999999960e-13
8.419999999999999929e+00 1.425699999999999923e-13
8.439999999999999503e+00 1.344809999999999952e-13
8.460000000000000853e+00 1.269250000000000120e-13
8.480000000000000426e+00 1.196780000000000076e-13
8.500000000000000000e+00 1.128339999999999966e-13
