# log10(T) rate(cm^3/s)
# RecombRates
3.500000000000000000e+00 5.258839999999999802e-10
3.520000000000000018e+00 5.112060000000000026e-10
3.540000000000000036e+00 4.969240000000000099e-10
3.560000000000000053e+00 4.830290000000000284e-10
3.580000000000000071e+00 4.695099999999999638e-10
3.600000000000000089e+00 4.563569999999999886e-10
3.620000000000000107e+00 4.435600000000000172e-10
3.640000000000000124e+00 4.311100000000000240e-10
3.660000000000000142e+00 4.189989999999999921e-10
3.680000000000000160e+00 4.072159999999999822e-10
3.700000000000000178e+00 3.957529999999999774e-10
3.720000000000000195e+00 3.846020000000000125e-10
3.740000000000000213e+00 3.737550000000000189e-10
3.759999999999999787e+00 3.632030000000000226e-10
3.779999999999999805e+00 3.529380000000000069e-10
3.799999999999999822e+00 3.429540000000000236e-10
3.819999999999999840e+00 3.332419999999999955e-10
3.839999999999999858e+00 3.237950000000000177e-10
3.859999999999999876e+00 3.146069999999999870e-10
3.879999999999999893e+00 3.056699999999999898e-10
3.899999999999999911e+00 2.969770000000000179e-10
3.919999999999999929e+00 2.885229999999999765e-10
3.939999999999999947e+00 2.803000000000000040e-10
3.959999999999999964e+00 2.723030000000000057e-10
3.979999999999999982e+00 2.645259999999999817e-10
4.000000000000000000e+00 2.569619999999999756e-10
4.019999999999999574e+00 2.496059999999999960e-10
4.040000000000000036e+00 2.424530000000000002e-10
4.059999999999999609e+00 2.354959999999999796e-10
4.080000000000000071e+00 2.287320000000000121e-10
4.099999999999999645e+00 2.221540000000000116e-10
4.120000000000000107e+00 2.157579999999999957e-10
4.139999999999999680e+00 2.095379999999999903e-10
4.160000000000000142e+00 2.034909999999999955e-10
4.179999999999999716e+00 1.976110000000000117e-10
4.200000000000000178e+00 1.918940000000000045e-10
4.219999999999999751e+00 1.863350000000000085e-10
4.240000000000000213e+00 1.809309999999999980e-10
4.259999999999999787e+00 1.756759999999999991e-10
4.280000000000000249e+00 1.705679999999999946e-10
4.299999999999999822e+00 1.656019999999999933e-10
4.320000000000000284e+00 1.607740000000000127e-10
4.339999999999999858e+00 1.560810000000000011e-10
4.360000000000000320e+00 1.515190000000000017e-10
4.379999999999999893e+00 1.470840000000000062e-10
4.400000000000000355e+00 1.427729999999999887e-10
4.419999999999999929e+00 1.385830000000000011e-10
4.440000000000000391e+00 1.345100000000000091e-10
4.459999999999999964e+00 1.305510000000000127e-10
4.480000000000000426e+00 1.267039999999999949e-10
4.500000000000000000e+00 1.229639999999999902e-10
4.519999999999999574e+00 1.193299999999999901e-10
4.540000000000000036e+00 1.157979999999999991e-10
4.559999999999999609e+00 1.123650000000000044e-10
4.580000000000000071e+00 1.090290000000000016e-10
4.599999999999999645e+00 1.057879999999999996e-10
4.620000000000000107e+00 1.026380000000000027e-10
4.639999999999999680e+00 9.957659999999999557e-11
4.660000000000000142e+00 9.660230000000000410e-11
4.679999999999999716e+00 9.371230000000000167e-11
4.700000000000000178e+00 9.090439999999999785e-11
4.719999999999999751e+00 8.817629999999999618e-11
4.740000000000000213e+00 8.552570000000000018e-11
4.769999999999999574e+00 8.295049999999999960e-11
4.790000000000000036e+00 8.044890000000000226e-11
4.809999999999999609e+00 7.801859999999999878e-11
4.830000000000000071e+00 7.565770000000000386e-11
4.849999999999999645e+00 7.336430000000000638e-11
4.870000000000000107e+00 7.113669999999999434e-11
4.889999999999999680e+00 6.897290000000000229e-11
4.910000000000000142e+00 6.687120000000000530e-11
4.929999999999999716e+00 6.482990000000000429e-11
4.950000000000000178e+00 6.284730000000000020e-11
4.969999999999999751e+00 6.092190000000000600e-11
4.990000000000000213e+00 5.905199999999999677e-11
5.009999999999999787e+00 5.723609999999999842e-11
5.030000000000000249e+00 5.547279999999999765e-11
5.049999999999999822e+00 5.376050000000000140e-11
5.070000000000000284e+00 5.209780000000000284e-11
5.089999999999999858e+00 5.048340000000000116e-11
5.110000000000000320e+00 4.891600000000000200e-11
5.129999999999999893e+00 4.739419999999999853e-11
5.150000000000000355e+00 4.591680000000000242e-11
5.169999999999999929e+00 4.448249999999999994e-11
5.190000000000000391e+00 4.309010000000000276e-11
5.209999999999999964e+00 4.173850000000000274e-11
5.230000000000000426e+00 4.042649999999999864e-11
5.250000000000000000e+00 3.915300000000000169e-11
5.269999999999999574e+00 3.791710000000000289e-11
5.290000000000000036e+00 3.671740000000000185e-11
5.309999999999999609e+00 3.555320000000000162e-11
5.330000000000000071e+00 3.442340000000000052e-11
5.349999999999999645e+00 3.332700000000000289e-11
5.370000000000000107e+00 3.226309999999999972e-11
5.389999999999999680e+00 3.123070000000000182e-11
5.410000000000000142e+00 3.022909999999999930e-11
5.429999999999999716e+00 2.925730000000000298e-11
5.450000000000000178e+00 2.831440000000000060e-11
5.469999999999999751e+00 2.739980000000000125e-11
5.490000000000000213e+00 2.651249999999999957e-11
5.509999999999999787e+00 2.565179999999999860e-11
5.530000000000000249e+00 2.481580000000000014e-11
5.549999999999999822e+00 2.400470000000000009e-11
5.570000000000000284e+00 2.321819999999999976e-11
5.589999999999999858e+00 2.245539999999999982e-11
5.610000000000000320e+00 2.171560000000000008e-11
5.629999999999999893e+00 2.099829999999999949e-11
5.650000000000000355e+00 2.030280000000000109e-11
5.669999999999999929e+00 1.962840000000000146e-11
5.690000000000000391e+00 1.897459999999999954e-11
5.709999999999999964e+00 1.834070000000000161e-11
5.730000000000000426e+00 1.772620000000000014e-11
5.750000000000000000e+00 1.713060000000000054e-11
5.769999999999999574e+00 1.655319999999999938e-11
5.790000000000000036e+00 1.599359999999999841e-11
5.809999999999999609e+00 1.545159999999999850e-11
5.830000000000000071e+00 1.492560000000000014e-11
5.849999999999999645e+00 1.441630000000000028e-11
5.870000000000000107e+00 1.392290000000000078e-11
5.889999999999999680e+00 1.344469999999999985e-11
5.910000000000000142e+00 1.298140000000000040e-11
5.929999999999999716e+00 1.253259999999999933e-11
5.950000000000000178e+00 1.209789999999999998e-11
5.969999999999999751e+00 1.167670000000000012e-11
5.990000000000000213e+00 1.126880000000000061e-11
6.009999999999999787e+00 1.087379999999999997e-11
6.030000000000000249e+00 1.049129999999999994e-11
6.049999999999999822e+00 1.012090000000000063e-11
6.070000000000000284e+00 9.762270000000000568e-12
6.089999999999999858e+00 9.415079999999999904e-12
6.110000000000000320e+00 9.078989999999999465e-12
6.129999999999999893e+00 8.753680000000000319e-12
6.150000000000000355e+00 8.438830000000000303e-12
6.169999999999999929e+00 8.134120000000000483e-12
6.190000000000000391e+00 7.839280000000000096e-12
6.209999999999999964e+00 7.553999999999999518e-12
6.230000000000000426e+00 7.278000000000000290e-12
6.250000000000000000e+00 7.010999999999999913e-12
6.269999999999999574e+00 6.752750000000000282e-12
6.290000000000000036e+00 6.502989999999999940e-12
6.309999999999999609e+00 6.261459999999999858e-12
6.330000000000000071e+00 6.027929999999999741e-12
6.349999999999999645e+00 5.802159999999999987e-12
6.370000000000000107e+00 5.583920000000000303e-12
6.389999999999999680e+00 5.372989999999999707e-12
6.410000000000000142e+00 5.169699999999999671e-12
6.429999999999999716e+00 4.972080000000000358e-12
6.450000000000000178e+00 4.781770000000000132e-12
6.469999999999999751e+00 4.598250000000000122e-12
6.490000000000000213e+00 4.421149999999999998e-12
6.509999999999999787e+00 4.250240000000000275e-12
6.530000000000000249e+00 4.085339999999999635e-12
6.549999999999999822e+00 3.926370000000000364e-12
6.570000000000000284e+00 3.773249999999999901e-12
6.589999999999999858e+00 3.625930000000000081e-12
6.610000000000000320e+00 3.484389999999999858e-12
6.629999999999999893e+00 3.348630000000000040e-12
6.650000000000000355e+00 3.218640000000000107e-12
6.669999999999999929e+00 3.094439999999999889e-12
6.690000000000000391e+00 2.976060000000000145e-12
6.709999999999999964e+00 2.863540000000000135e-12
6.730000000000000426e+00 2.756889999999999979e-12
6.750000000000000000e+00 2.656169999999999980e-12
6.769999999999999574e+00 2.561370000000000020e-12
6.790000000000000036e+00 2.472509999999999933e-12
6.809999999999999609e+00 2.389439999999999964e-12
6.830000000000000071e+00 2.312339999999999818e-12
6.849999999999999645e+00 2.241020000000000078e-12
6.870000000000000107e+00 2.175379999999999966e-12
6.889999999999999680e+00 2.115279999999999848e-12
6.910000000000000142e+00 2.060520000000000191e-12
6.929999999999999716e+00 2.010839999999999942e-12
6.950000000000000178e+00 1.965969999999999952e-12
6.969999999999999751e+00 1.925579999999999960e-12
6.990000000000000213e+00 1.889300000000000038e-12
7.009999999999999787e+00 1.856750000000000141e-12
7.030000000000000249e+00 1.827519999999999871e-12
7.049999999999999822e+00 1.801180000000000005e-12
7.070000000000000284e+00 1.777289999999999993e-12
7.089999999999999858e+00 1.755410000000000090e-12
7.110000000000000320e+00 1.735110000000000066e-12
7.129999999999999893e+00 1.715970000000000008e-12
7.150000000000000355e+00 1.697599999999999956e-12
7.169999999999999929e+00 1.679620000000000067e-12
7.190000000000000391e+00 1.661709999999999995e-12
7.209999999999999964e+00 1.643540000000000083e-12
7.230000000000000426e+00 1.624850000000000089e-12
7.259999999999999787e+00 1.605409999999999922e-12
7.280000000000000249e+00 1.585029999999999962e-12
7.299999999999999822e+00 1.563549999999999936e-12
7.320000000000000284e+00 1.540870000000000077e-12
7.339999999999999858e+00 1.516899999999999928e-12
7.360000000000000320e+00 1.491600000000000026e-12
7.379999999999999893e+00 1.464969999999999967e-12
7.400000000000000355e+00 1.437009999999999952e-12
7.419999999999999929e+00 1.406940000000000061e-12
7.440000000000000391e+00 1.376369999999999920e-12
7.459999999999999964e+00 1.344520000000000010e-12
7.480000000000000426e+00 1.311590000000000069e-12
7.500000000000000000e+00 1.277719999999999931e-12
7.519999999999999574e+00 1.243059999999999956e-12
7.540000000000000036e+00 1.207740000000000062e-12
7.559999999999999609e+00 1.171900000000000086e-12
7.580000000000000071e+00 1.135660000000000030e-12
7.599999999999999645e+00 1.099150000000000017e-12
7.620000000000000107e+00 1.062479999999999932e-12
7.639999999999999680e+00 1.025790000000000014e-12
7.660000000000000142e+00 9.891790000000000606e-13
7.679999999999999716e+00 9.527649999999999292e-13
7.700000000000000178e+00 9.166499999999999362e-13
7.719999999999999751e+00 8.809299999999999632e-13
7.740000000000000213e+00 8.456970000000000062e-13
7.759999999999999787e+00 8.110310000000000002e-13
7.780000000000000249e+00 7.770059999999999508e-13
7.799999999999999822e+00 7.436870000000000198e-13
7.820000000000000284e+00 7.111680000000000450e-13
7.839999999999999858e+00 6.794299999999999635e-13
7.860000000000000320e+00 6.485490000000000267e-13
7.879999999999999893e+00 6.185579999999999983e-13
7.900000000000000355e+00 5.894840000000000154e-13
7.919999999999999929e+00 5.613449999999999674e-13
7.940000000000000391e+00 5.341560000000000314e-13
7.959999999999999964e+00 5.079249999999999789e-13
7.980000000000000426e+00 4.826539999999999546e-13
8.000000000000000000e+00 4.583410000000000157e-13
8.019999999999999574e+00 4.349799999999999802e-13
8.039999999999999147e+00 4.125609999999999826e-13
8.060000000000000497e+00 3.910709999999999903e-13
8.080000000000000071e+00 3.704949999999999778e-13
8.099999999999999645e+00 3.508139999999999832e-13
8.119999999999999218e+00 3.320089999999999942e-13
8.140000000000000568e+00 3.140559999999999898e-13
8.160000000000000142e+00 2.969320000000000216e-13
8.179999999999999716e+00 2.806139999999999895e-13
8.199999999999999289e+00 2.650759999999999804e-13
8.220000000000000639e+00 2.502919999999999800e-13
8.240000000000000213e+00 2.362369999999999960e-13
8.259999999999999787e+00 2.228839999999999922e-13
8.279999999999999361e+00 2.102060000000000082e-13
8.300000000000000711e+00 1.981770000000000047e-13
8.320000000000000284e+00 1.867709999999999925e-13
8.339999999999999858e+00 1.759630000000000046e-13
8.359999999999999432e+00 1.657279999999999982e-13
8.380000000000000782e+00 1.560400000000000096e-13
8.400000000000000355e+00 1.468759999999999893e-13
8.419999999999999929e+00 1.383080000000000000e-13
8.439999999999999503e+00 1.301249999999999883e-13
8.460000000000000853e+00 1.224069999999999903e-13
8.480000000000000426e+00 1.151339999999999969e-13
8.500000000000000000e+00 1.082840000000000059e-13
