# log10(T) rate(cm^3/s)
# RecombRates
3.500000000000000000e+00 3.737890000000000003e-10
3.520000000000000018e+00 3.631480000000000161e-10
3.540000000000000036e+00 3.527979999999999950e-10
3.560000000000000053e+00 3.427319999999999803e-10
3.580000000000000071e+00 3.329420000000000069e-10
3.600000000000000089e+00 3.234210000000000146e-10
3.620000000000000107e+00 3.141609999999999866e-10
3.640000000000000124e+00 3.051569999999999834e-10
3.660000000000000142e+00 2.963999999999999794e-10
3.680000000000000160e+00 2.878849999999999835e-10
3.700000000000000178e+00 2.796049999999999873e-10
3.720000000000000195e+00 2.715529999999999824e-10
3.740000000000000213e+00 2.637230000000000208e-10
3.759999999999999787e+00 2.561100000000000079e-10
3.779999999999999805e+00 2.487079999999999956e-10
3.799999999999999822e+00 2.415109999999999842e-10
3.819999999999999840e+00 2.345130000000000255e-10
3.839999999999999858e+00 2.277100000000000078e-10
3.859999999999999876e+00 2.210950000000000001e-10
3.879999999999999893e+00 2.146639999999999941e-10
3.899999999999999911e+00 2.084119999999999985e-10
3.919999999999999929e+00 2.023339999999999963e-10
3.939999999999999947e+00 1.964249999999999964e-10
3.959999999999999964e+00 1.906819999999999987e-10
3.979999999999999982e+00 1.850979999999999951e-10
4.000000000000000000e+00 1.796709999999999940e-10
4.019999999999999574e+00 1.743949999999999959e-10
4.040000000000000036e+00 1.692670000000000008e-10
4.059999999999999609e+00 1.642830000000000002e-10
4.080000000000000071e+00 1.594390000000000116e-10
4.099999999999999645e+00 1.547310000000000006e-10
4.120000000000000107e+00 1.501550000000000104e-10
4.139999999999999680e+00 1.457070000000000067e-10
4.160000000000000142e+00 1.413849999999999982e-10
4.179999999999999716e+00 1.371850000000000024e-10
4.200000000000000178e+00 1.331039999999999934e-10
4.219999999999999751e+00 1.291370000000000060e-10
4.240000000000000213e+00 1.252830000000000057e-10
4.259999999999999787e+00 1.215380000000000098e-10
4.280000000000000249e+00 1.178989999999999927e-10
4.299999999999999822e+00 1.143640000000000018e-10
4.320000000000000284e+00 1.109279999999999942e-10
4.339999999999999858e+00 1.075909999999999958e-10
4.360000000000000320e+00 1.043480000000000025e-10
4.379999999999999893e+00 1.011980000000000056e-10
4.400000000000000355e+00 9.813780000000000619e-11
4.419999999999999929e+00 9.516500000000000173e-11
4.440000000000000391e+00 9.227709999999999664e-11
4.459999999999999964e+00 8.947199999999999357e-11
4.480000000000000426e+00 8.674719999999999694e-11
4.500000000000000000e+00 8.410070000000000252e-11
4.519999999999999574e+00 8.153020000000000090e-11
4.540000000000000036e+00 7.903359999999999475e-11
4.559999999999999609e+00 7.660899999999999880e-11
4.580000000000000071e+00 7.425430000000000279e-11
4.599999999999999645e+00 7.196759999999999558e-11
4.620000000000000107e+00 6.974700000000000482e-11
4.639999999999999680e+00 6.759080000000000559e-11
4.660000000000000142e+00 6.549699999999999365e-11
4.679999999999999716e+00 6.346400000000000180e-11
4.700000000000000178e+00 6.149010000000000514e-11
4.719999999999999751e+00 5.957369999999999767e-11
4.740000000000000213e+00 5.771309999999999972e-11
4.769999999999999574e+00 5.590689999999999799e-11
4.790000000000000036e+00 5.415349999999999942e-11
4.809999999999999609e+00 5.245139999999999762e-11
4.830000000000000071e+00 5.079919999999999866e-11
4.849999999999999645e+00 4.919550000000000217e-11
4.870000000000000107e+00 4.763900000000000088e-11
4.889999999999999680e+00 4.612830000000000086e-11
4.910000000000000142e+00 4.466220000000000088e-11
4.929999999999999716e+00 4.323940000000000011e-11
4.950000000000000178e+00 1.840799999999999992e-10
4.969999999999999751e+00 1.821370000000000039e-10
4.990000000000000213e+00 1.801649999999999925e-10
5.009999999999999787e+00 1.781889999999999985e-10
5.030000000000000249e+00 1.762350000000000123e-10
5.049999999999999822e+00 1.743270000000000071e-10
5.070000000000000284e+00 1.724860000000000080e-10
5.089999999999999858e+00 1.707309999999999970e-10
5.110000000000000320e+00 1.690799999999999993e-10
5.129999999999999893e+00 1.675440000000000058e-10
5.150000000000000355e+00 1.661319999999999904e-10
5.169999999999999929e+00 1.648479999999999874e-10
5.190000000000000391e+00 1.636930000000000054e-10
5.209999999999999964e+00 1.626609999999999928e-10
5.230000000000000426e+00 1.617419999999999932e-10
5.250000000000000000e+00 1.609259999999999983e-10
5.269999999999999574e+00 1.601940000000000002e-10
5.290000000000000036e+00 1.595269999999999910e-10
5.309999999999999609e+00 1.589039999999999974e-10
5.330000000000000071e+00 1.583020000000000030e-10
5.349999999999999645e+00 1.576960000000000001e-10
5.370000000000000107e+00 1.570619999999999897e-10
5.389999999999999680e+00 1.563770000000000071e-10
5.410000000000000142e+00 1.556159999999999928e-10
5.429999999999999716e+00 1.547599999999999908e-10
5.450000000000000178e+00 1.537880000000000018e-10
5.469999999999999751e+00 1.526850000000000006e-10
5.490000000000000213e+00 1.514350000000000049e-10
5.509999999999999787e+00 1.500289999999999893e-10
5.530000000000000249e+00 1.484580000000000058e-10
5.549999999999999822e+00 1.467160000000000029e-10
5.570000000000000284e+00 1.448030000000000065e-10
5.589999999999999858e+00 1.427169999999999994e-10
5.610000000000000320e+00 1.404629999999999987e-10
5.629999999999999893e+00 1.380470000000000042e-10
5.650000000000000355e+00 1.354759999999999983e-10
5.669999999999999929e+00 1.327599999999999893e-10
5.690000000000000391e+00 1.299099999999999939e-10
5.709999999999999964e+00 1.269389999999999946e-10
5.730000000000000426e+00 1.238610000000000079e-10
5.750000000000000000e+00 1.206910000000000075e-10
5.769999999999999574e+00 1.174430000000000100e-10
5.790000000000000036e+00 1.141329999999999976e-10
5.809999999999999609e+00 1.107779999999999999e-10
5.830000000000000071e+00 1.073919999999999948e-10
5.849999999999999645e+00 1.039910000000000031e-10
5.870000000000000107e+00 1.005899999999999985e-10
5.889999999999999680e+00 9.720440000000000453e-11
5.910000000000000142e+00 9.384729999999999655e-11
5.929999999999999716e+00 9.053219999999999990e-11
5.950000000000000178e+00 8.727160000000000549e-11
5.969999999999999751e+00 8.407659999999999740e-11
5.990000000000000213e+00 8.095750000000000193e-11
6.009999999999999787e+00 7.792339999999999894e-11
6.030000000000000249e+00 7.498210000000000621e-11
6.049999999999999822e+00 7.213990000000000283e-11
6.070000000000000284e+00 6.940180000000000585e-11
6.089999999999999858e+00 6.677179999999999787e-11
6.110000000000000320e+00 6.425209999999999518e-11
6.129999999999999893e+00 6.184370000000000638e-11
6.150000000000000355e+00 5.954640000000000646e-11
6.169999999999999929e+00 5.735870000000000196e-11
6.190000000000000391e+00 5.527830000000000287e-11
6.209999999999999964e+00 5.330159999999999898e-11
6.230000000000000426e+00 5.142420000000000296e-11
6.250000000000000000e+00 4.964129999999999690e-11
6.269999999999999574e+00 4.794749999999999779e-11
6.290000000000000036e+00 4.633669999999999985e-11
6.309999999999999609e+00 4.480330000000000156e-11
6.330000000000000071e+00 4.333969999999999717e-11
6.349999999999999645e+00 4.194130000000000022e-11
6.370000000000000107e+00 4.060150000000000062e-11
6.389999999999999680e+00 3.931449999999999772e-11
6.410000000000000142e+00 3.807470000000000295e-11
6.429999999999999716e+00 3.687699999999999968e-11
6.450000000000000178e+00 3.571660000000000232e-11
6.469999999999999751e+00 3.458940000000000284e-11
6.490000000000000213e+00 3.349179999999999750e-11
6.509999999999999787e+00 3.242050000000000064e-11
6.530000000000000249e+00 3.137279999999999815e-11
6.549999999999999822e+00 3.034630000000000046e-11
6.570000000000000284e+00 2.933940000000000159e-11
6.589999999999999858e+00 2.835060000000000160e-11
6.610000000000000320e+00 2.737869999999999925e-11
6.629999999999999893e+00 2.642319999999999994e-11
6.650000000000000355e+00 2.548349999999999981e-11
6.669999999999999929e+00 2.455959999999999887e-11
6.690000000000000391e+00 2.365140000000000078e-11
6.709999999999999964e+00 2.275879999999999952e-11
6.730000000000000426e+00 2.188280000000000042e-11
6.750000000000000000e+00 2.102359999999999940e-11
6.769999999999999574e+00 2.018150000000000160e-11
6.790000000000000036e+00 1.935730000000000033e-11
6.809999999999999609e+00 1.855149999999999986e-11
6.830000000000000071e+00 1.776470000000000083e-11
6.849999999999999645e+00 1.699740000000000106e-11
6.870000000000000107e+00 1.625020000000000118e-11
6.889999999999999680e+00 1.552339999999999987e-11
6.910000000000000142e+00 1.481750000000000144e-11
6.929999999999999716e+00 1.413289999999999928e-11
6.950000000000000178e+00 1.346959999999999988e-11
6.969999999999999751e+00 1.282809999999999943e-11
6.990000000000000213e+00 1.220829999999999999e-11
7.009999999999999787e+00 1.161019999999999995e-11
7.030000000000000249e+00 1.103390000000000047e-11
7.049999999999999822e+00 1.047930000000000039e-11
7.070000000000000284e+00 9.946099999999999392e-12
7.089999999999999858e+00 9.434160000000000667e-12
7.110000000000000320e+00 8.943169999999999747e-12
7.129999999999999893e+00 8.472790000000000695e-12
7.150000000000000355e+00 8.022620000000000403e-12
7.169999999999999929e+00 7.592249999999999683e-12
7.190000000000000391e+00 7.181210000000000255e-12
7.209999999999999964e+00 6.789019999999999682e-12
7.230000000000000426e+00 6.415130000000000353e-12
7.259999999999999787e+00 6.059020000000000167e-12
7.280000000000000249e+00 5.720129999999999780e-12
7.299999999999999822e+00 5.397889999999999732e-12
7.320000000000000284e+00 5.090969999999999662e-12
7.339999999999999858e+00 4.800160000000000016e-12
7.360000000000000320e+00 4.524129999999999626e-12
7.379999999999999893e+00 4.262379999999999858e-12
7.400000000000000355e+00 4.014339999999999634e-12
7.419999999999999929e+00 3.779479999999999967e-12
7.440000000000000391e+00 3.557230000000000182e-12
7.459999999999999964e+00 3.347039999999999842e-12
7.480000000000000426e+00 3.148360000000000127e-12
7.500000000000000000e+00 2.960640000000000196e-12
7.519999999999999574e+00 2.783379999999999798e-12
7.540000000000000036e+00 2.616070000000000181e-12
7.559999999999999609e+00 2.458200000000000168e-12
7.580000000000000071e+00 2.309329999999999814e-12
7.599999999999999645e+00 2.168970000000000198e-12
7.620000000000000107e+00 2.036710000000000113e-12
7.639999999999999680e+00 1.912120000000000136e-12
7.660000000000000142e+00 1.794799999999999986e-12
7.679999999999999716e+00 1.684349999999999987e-12
7.700000000000000178e+00 1.580409999999999927e-12
7.719999999999999751e+00 1.482699999999999932e-12
7.740000000000000213e+00 1.390749999999999905e-12
7.759999999999999787e+00 1.304309999999999922e-12
7.780000000000000249e+00 1.223060000000000041e-12
7.799999999999999822e+00 1.146710000000000069e-12
7.820000000000000284e+00 1.074999999999999963e-12
7.839999999999999858e+00 1.007639999999999935e-12
7.860000000000000320e+00 9.443880000000000347e-13
7.879999999999999893e+00 8.850099999999999822e-13
7.900000000000000355e+00 8.292769999999999610e-13
7.919999999999999929e+00 7.769739999999999566e-13
7.940000000000000391e+00 7.278989999999999865e-13
7.959999999999999964e+00 6.818599999999999845e-13
7.980000000000000426e+00 6.386750000000000024e-13
8.000000000000000000e+00 5.981750000000000235e-13
8.019999999999999574e+00 5.601950000000000177e-13
8.039999999999999147e+00 5.245839999999999587e-13
8.060000000000000497e+00 4.911989999999999954e-13
8.080000000000000071e+00 4.599060000000000196e-13
8.099999999999999645e+00 4.305730000000000173e-13
8.119999999999999218e+00 4.030840000000000220e-13
8.140000000000000568e+00 3.773230000000000170e-13
8.160000000000000142e+00 3.531850000000000243e-13
8.179999999999999716e+00 3.305700000000000243e-13
8.199999999999999289e+00 3.093830000000000056e-13
8.220000000000000639e+00 2.895360000000000095e-13
8.240000000000000213e+00 2.709479999999999780e-13
8.259999999999999787e+00 2.535380000000000047e-13
8.279999999999999361e+00 2.372349999999999984e-13
8.300000000000000711e+00 2.219689999999999905e-13
8.320000000000000284e+00 2.077610000000000121e-13
8.339999999999999858e+00 1.943829999999999907e-13
8.359999999999999432e+00 1.818700000000000116e-13
8.380000000000000782e+00 1.701699999999999959e-13
8.400000000000000355e+00 1.592309999999999907e-13
8.419999999999999929e+00 1.490050000000000048e-13
8.439999999999999503e+00 1.394470000000000116e-13
8.460000000000000853e+00 1.305149999999999997e-13
8.480000000000000426e+00 1.221680000000000051e-13
8.500000000000000000e+00 1.143719999999999897e-13
