# log10(T) rate(cm^3/s)
# RecombRates
3.500000000000000000e+00 3.232549999999999865e-10
3.520000000000000018e+00 3.140240000000000004e-10
3.540000000000000036e+00 3.050460000000000135e-10
3.560000000000000053e+00 2.963150000000000257e-10
3.580000000000000071e+00 2.878239999999999772e-10
3.600000000000000089e+00 2.795670000000000232e-10
3.620000000000000107e+00 2.715370000000000002e-10
3.640000000000000124e+00 2.637290000000000206e-10
3.660000000000000142e+00 2.561360000000000242e-10
3.680000000000000160e+00 2.487530000000000198e-10
3.700000000000000178e+00 2.415740000000000077e-10
3.720000000000000195e+00 2.345939999999999966e-10
3.740000000000000213e+00 2.278070000000000127e-10
3.759999999999999787e+00 2.212079999999999872e-10
3.779999999999999805e+00 2.147920000000000065e-10
3.799999999999999822e+00 2.085540000000000017e-10
3.819999999999999840e+00 2.024890000000000077e-10
3.839999999999999858e+00 1.965939999999999986e-10
3.859999999999999876e+00 1.908619999999999919e-10
3.879999999999999893e+00 1.852899999999999878e-10
3.899999999999999911e+00 1.798729999999999950e-10
3.919999999999999929e+00 1.746079999999999879e-10
3.939999999999999947e+00 1.694900000000000010e-10
3.959999999999999964e+00 1.645139999999999915e-10
3.979999999999999982e+00 1.596790000000000025e-10
4.000000000000000000e+00 1.549779999999999998e-10
4.019999999999999574e+00 1.504100000000000007e-10
4.040000000000000036e+00 1.459690000000000054e-10
4.059999999999999609e+00 1.416540000000000053e-10
4.080000000000000071e+00 1.374600000000000092e-10
4.099999999999999645e+00 1.333830000000000087e-10
4.120000000000000107e+00 1.294219999999999952e-10
4.139999999999999680e+00 1.255730000000000119e-10
4.160000000000000142e+00 1.218319999999999987e-10
4.179999999999999716e+00 1.181969999999999900e-10
4.200000000000000178e+00 1.146649999999999990e-10
4.219999999999999751e+00 1.112329999999999999e-10
4.240000000000000213e+00 1.078990000000000014e-10
4.259999999999999787e+00 1.046589999999999950e-10
4.280000000000000249e+00 1.015110000000000024e-10
4.299999999999999822e+00 9.845259999999999511e-11
4.320000000000000284e+00 9.548150000000000265e-11
4.339999999999999858e+00 9.259509999999999750e-11
4.360000000000000320e+00 8.979120000000000215e-11
4.379999999999999893e+00 8.706740000000000117e-11
4.400000000000000355e+00 8.442159999999999724e-11
4.419999999999999929e+00 8.185159999999999991e-11
4.440000000000000391e+00 7.935529999999999893e-11
4.459999999999999964e+00 7.693079999999999608e-11
4.480000000000000426e+00 7.457599999999999404e-11
4.500000000000000000e+00 7.228910000000000062e-11
4.519999999999999574e+00 7.006800000000000557e-11
4.540000000000000036e+00 6.791119999999999602e-11
4.559999999999999609e+00 6.581669999999999359e-11
4.580000000000000071e+00 6.378290000000000522e-11
4.599999999999999645e+00 6.180830000000000513e-11
4.620000000000000107e+00 5.989119999999999425e-11
4.639999999999999680e+00 5.803029999999999760e-11
4.660000000000000142e+00 5.622430000000000146e-11
4.679999999999999716e+00 5.447199999999999811e-11
4.700000000000000178e+00 5.277280000000000309e-11
4.719999999999999751e+00 5.112590000000000049e-11
4.740000000000000213e+00 4.953119999999999720e-11
4.769999999999999574e+00 4.798899999999999837e-11
4.790000000000000036e+00 4.650029999999999968e-11
4.809999999999999609e+00 4.506650000000000149e-11
4.830000000000000071e+00 4.368990000000000026e-11
4.849999999999999645e+00 4.237390000000000062e-11
4.870000000000000107e+00 4.112269999999999723e-11
4.889999999999999680e+00 3.994130000000000067e-11
4.910000000000000142e+00 3.883610000000000251e-11
4.929999999999999716e+00 3.781429999999999731e-11
4.950000000000000178e+00 3.688390000000000200e-11
4.969999999999999751e+00 3.605369999999999772e-11
4.990000000000000213e+00 3.533290000000000265e-11
5.009999999999999787e+00 3.473090000000000179e-11
5.030000000000000249e+00 3.425690000000000037e-11
5.049999999999999822e+00 3.391949999999999981e-11
5.070000000000000284e+00 3.372669999999999764e-11
5.089999999999999858e+00 3.368459999999999967e-11
5.110000000000000320e+00 3.379789999999999839e-11
5.129999999999999893e+00 3.406920000000000189e-11
5.150000000000000355e+00 3.449849999999999724e-11
5.169999999999999929e+00 3.508350000000000091e-11
5.190000000000000391e+00 3.581879999999999758e-11
5.209999999999999964e+00 3.669660000000000178e-11
5.230000000000000426e+00 3.770610000000000228e-11
5.250000000000000000e+00 3.883409999999999828e-11
5.269999999999999574e+00 4.006489999999999986e-11
5.290000000000000036e+00 4.138109999999999863e-11
5.309999999999999609e+00 4.276350000000000050e-11
5.330000000000000071e+00 4.419149999999999805e-11
5.349999999999999645e+00 4.564429999999999767e-11
5.370000000000000107e+00 4.710020000000000321e-11
5.389999999999999680e+00 4.853810000000000297e-11
5.410000000000000142e+00 4.993730000000000291e-11
5.429999999999999716e+00 5.127819999999999773e-11
5.450000000000000178e+00 5.254240000000000278e-11
5.469999999999999751e+00 5.371329999999999974e-11
5.490000000000000213e+00 5.477600000000000167e-11
5.509999999999999787e+00 5.571789999999999869e-11
5.530000000000000249e+00 5.652829999999999855e-11
5.549999999999999822e+00 5.719889999999999854e-11
5.570000000000000284e+00 5.772359999999999932e-11
5.589999999999999858e+00 5.809839999999999890e-11
5.610000000000000320e+00 5.832169999999999776e-11
5.629999999999999893e+00 5.839360000000000192e-11
5.650000000000000355e+00 5.831669999999999364e-11
5.669999999999999929e+00 5.809340000000000124e-11
5.690000000000000391e+00 5.773050000000000165e-11
5.709999999999999964e+00 5.723449999999999891e-11
5.730000000000000426e+00 5.661329999999999748e-11
5.750000000000000000e+00 5.587579999999999744e-11
5.769999999999999574e+00 5.503190000000000101e-11
5.790000000000000036e+00 5.409220000000000088e-11
5.809999999999999609e+00 5.306780000000000052e-11
5.830000000000000071e+00 5.197020000000000165e-11
5.849999999999999645e+00 5.081099999999999907e-11
5.870000000000000107e+00 4.960219999999999881e-11
5.889999999999999680e+00 4.835499999999999742e-11
5.910000000000000142e+00 4.708100000000000265e-11
5.929999999999999716e+00 4.579099999999999986e-11
5.950000000000000178e+00 4.449540000000000203e-11
5.969999999999999751e+00 4.320370000000000018e-11
5.990000000000000213e+00 4.192470000000000128e-11
6.009999999999999787e+00 4.066619999999999731e-11
6.030000000000000249e+00 3.943530000000000262e-11
6.049999999999999822e+00 3.823759999999999935e-11
6.070000000000000284e+00 3.707789999999999895e-11
6.089999999999999858e+00 3.595969999999999913e-11
6.110000000000000320e+00 3.488580000000000065e-11
6.129999999999999893e+00 3.385739999999999829e-11
6.150000000000000355e+00 3.287520000000000193e-11
6.169999999999999929e+00 3.193870000000000082e-11
6.190000000000000391e+00 3.104679999999999974e-11
6.209999999999999964e+00 3.019760000000000049e-11
6.230000000000000426e+00 2.938870000000000058e-11
6.250000000000000000e+00 2.861780000000000030e-11
6.269999999999999574e+00 2.787989999999999877e-11
6.290000000000000036e+00 2.717330000000000014e-11
6.309999999999999609e+00 2.649409999999999876e-11
6.330000000000000071e+00 2.583880000000000012e-11
6.349999999999999645e+00 2.520380000000000051e-11
6.370000000000000107e+00 2.458569999999999853e-11
6.389999999999999680e+00 2.398160000000000032e-11
6.410000000000000142e+00 2.338859999999999911e-11
6.429999999999999716e+00 2.280439999999999843e-11
6.450000000000000178e+00 2.222669999999999858e-11
6.469999999999999751e+00 2.165390000000000005e-11
6.490000000000000213e+00 2.108440000000000011e-11
6.509999999999999787e+00 2.051719999999999986e-11
6.530000000000000249e+00 1.995139999999999999e-11
6.549999999999999822e+00 1.938659999999999900e-11
6.570000000000000284e+00 1.882260000000000100e-11
6.589999999999999858e+00 1.825929999999999996e-11
6.610000000000000320e+00 1.769690000000000146e-11
6.629999999999999893e+00 1.713590000000000012e-11
6.650000000000000355e+00 1.657660000000000108e-11
6.669999999999999929e+00 1.602019999999999913e-11
6.690000000000000391e+00 1.546709999999999899e-11
6.709999999999999964e+00 1.491829999999999955e-11
6.730000000000000426e+00 1.437460000000000057e-11
6.750000000000000000e+00 1.383689999999999974e-11
6.769999999999999574e+00 1.330620000000000080e-11
6.790000000000000036e+00 1.278339999999999983e-11
6.809999999999999609e+00 1.226920000000000027e-11
6.830000000000000071e+00 1.176449999999999980e-11
6.849999999999999645e+00 1.127009999999999981e-11
6.870000000000000107e+00 1.078649999999999973e-11
6.889999999999999680e+00 1.031439999999999975e-11
6.910000000000000142e+00 9.854360000000000028e-12
6.929999999999999716e+00 9.406809999999999981e-12
6.950000000000000178e+00 8.972140000000000178e-12
6.969999999999999751e+00 8.550689999999999788e-12
6.990000000000000213e+00 8.142670000000000482e-12
7.009999999999999787e+00 7.748259999999999541e-12
7.030000000000000249e+00 7.367570000000000685e-12
7.049999999999999822e+00 7.000640000000000349e-12
7.070000000000000284e+00 6.647449999999999912e-12
7.089999999999999858e+00 6.307930000000000164e-12
7.110000000000000320e+00 5.981979999999999922e-12
7.129999999999999893e+00 5.669429999999999603e-12
7.150000000000000355e+00 5.370059999999999839e-12
7.169999999999999929e+00 5.083649999999999649e-12
7.190000000000000391e+00 4.809929999999999882e-12
7.209999999999999964e+00 4.548600000000000227e-12
7.230000000000000426e+00 4.299350000000000255e-12
7.259999999999999787e+00 4.061129999999999680e-12
7.280000000000000249e+00 3.834920000000000385e-12
7.299999999999999822e+00 3.619610000000000164e-12
7.320000000000000284e+00 3.414889999999999801e-12
7.339999999999999858e+00 3.220439999999999958e-12
7.360000000000000320e+00 3.035889999999999901e-12
7.379999999999999893e+00 2.860879999999999822e-12
7.400000000000000355e+00 2.695019999999999961e-12
7.419999999999999929e+00 2.537929999999999870e-12
7.440000000000000391e+00 2.389229999999999908e-12
7.459999999999999964e+00 2.248569999999999980e-12
7.480000000000000426e+00 2.115570000000000042e-12
7.500000000000000000e+00 1.989869999999999881e-12
7.519999999999999574e+00 1.871140000000000042e-12
7.540000000000000036e+00 1.759050000000000063e-12
7.559999999999999609e+00 1.653259999999999965e-12
7.580000000000000071e+00 1.553459999999999926e-12
7.599999999999999645e+00 1.459359999999999953e-12
7.620000000000000107e+00 1.370659999999999937e-12
7.639999999999999680e+00 1.287089999999999921e-12
7.660000000000000142e+00 1.208429999999999931e-12
7.679999999999999716e+00 1.134330000000000075e-12
7.700000000000000178e+00 1.064580000000000094e-12
7.719999999999999751e+00 9.989559999999999290e-13
7.740000000000000213e+00 9.372319999999999792e-13
7.759999999999999787e+00 8.791900000000000130e-13
7.780000000000000249e+00 8.246269999999999758e-13
7.799999999999999822e+00 7.733470000000000166e-13
7.820000000000000284e+00 7.251639999999999987e-13
7.839999999999999858e+00 6.798989999999999891e-13
7.860000000000000320e+00 6.373859999999999864e-13
7.879999999999999893e+00 5.974650000000000194e-13
7.900000000000000355e+00 5.599849999999999610e-13
7.919999999999999929e+00 5.248019999999999887e-13
7.940000000000000391e+00 4.917819999999999941e-13
7.959999999999999964e+00 4.607960000000000290e-13
7.980000000000000426e+00 4.317230000000000174e-13
8.000000000000000000e+00 4.044489999999999864e-13
8.019999999999999574e+00 3.788650000000000219e-13
8.039999999999999147e+00 3.548699999999999813e-13
8.060000000000000497e+00 3.323679999999999829e-13
8.080000000000000071e+00 3.112699999999999954e-13
8.099999999999999645e+00 2.914880000000000096e-13
8.119999999999999218e+00 2.729439999999999828e-13
8.140000000000000568e+00 2.555600000000000238e-13
8.160000000000000142e+00 2.392680000000000060e-13
8.179999999999999716e+00 2.239980000000000115e-13
8.199999999999999289e+00 2.096899999999999880e-13
8.220000000000000639e+00 1.962840000000000096e-13
8.240000000000000213e+00 1.837260000000000039e-13
8.259999999999999787e+00 1.720409999999999886e-13
8.279999999999999361e+00 1.610239999999999912e-13
8.300000000000000711e+00 1.507150000000000045e-13
8.320000000000000284e+00 1.410719999999999920e-13
8.339999999999999858e+00 1.320529999999999928e-13
8.359999999999999432e+00 1.236200000000000074e-13
8.380000000000000782e+00 1.157360000000000079e-13
8.400000000000000355e+00 1.083659999999999974e-13
8.419999999999999929e+00 1.014790000000000036e-13
8.439999999999999503e+00 9.504350000000000543e-14
8.460000000000000853e+00 8.903189999999999901e-14
8.480000000000000426e+00 8.341789999999999890e-14
8.500000000000000000e+00 7.817710000000000572e-14
