# log10(T) rate(cm^3/s)
# RecombRates
3.500000000000000000e+00 3.001570000000000265e-11
3.520000000000000018e+00 2.912810000000000227e-11
3.540000000000000036e+00 2.826549999999999987e-11
3.560000000000000053e+00 2.742719999999999848e-11
3.580000000000000071e+00 2.661260000000000072e-11
3.600000000000000089e+00 2.582090000000000037e-11
3.620000000000000107e+00 2.505169999999999917e-11
3.640000000000000124e+00 2.430420000000000058e-11
3.660000000000000142e+00 2.357790000000000034e-11
3.680000000000000160e+00 2.287220000000000103e-11
3.700000000000000178e+00 2.218660000000000161e-11
3.720000000000000195e+00 2.152039999999999865e-11
3.740000000000000213e+00 2.087320000000000036e-11
3.759999999999999787e+00 2.024439999999999965e-11
3.779999999999999805e+00 1.963360000000000148e-11
3.799999999999999822e+00 1.904019999999999878e-11
3.819999999999999840e+00 1.846370000000000018e-11
3.839999999999999858e+00 1.790380000000000051e-11
3.859999999999999876e+00 1.735989999999999916e-11
3.879999999999999893e+00 1.683160000000000110e-11
3.899999999999999911e+00 1.631850000000000160e-11
3.919999999999999929e+00 1.582009999999999961e-11
3.939999999999999947e+00 1.533609999999999965e-11
3.959999999999999964e+00 1.486600000000000067e-11
3.979999999999999982e+00 1.440950000000000075e-11
4.000000000000000000e+00 1.396620000000000000e-11
4.019999999999999574e+00 1.353570000000000017e-11
4.040000000000000036e+00 1.311769999999999933e-11
4.059999999999999609e+00 1.271179999999999921e-11
4.080000000000000071e+00 1.231769999999999951e-11
4.099999999999999645e+00 1.193500000000000034e-11
4.120000000000000107e+00 1.156349999999999935e-11
4.139999999999999680e+00 1.120289999999999945e-11
4.160000000000000142e+00 1.085280000000000077e-11
4.179999999999999716e+00 1.051289999999999976e-11
4.200000000000000178e+00 1.018289999999999935e-11
4.219999999999999751e+00 9.862690000000000660e-12
4.240000000000000213e+00 9.551850000000000340e-12
4.259999999999999787e+00 9.250149999999999717e-12
4.280000000000000249e+00 8.957330000000000567e-12
4.299999999999999822e+00 8.673159999999999366e-12
4.320000000000000284e+00 8.397379999999999505e-12
4.339999999999999858e+00 8.129760000000000692e-12
4.360000000000000320e+00 7.870080000000000328e-12
4.379999999999999893e+00 7.618109999999999737e-12
4.400000000000000355e+00 7.373629999999999551e-12
4.419999999999999929e+00 7.136429999999999713e-12
4.440000000000000391e+00 6.906310000000000286e-12
4.459999999999999964e+00 6.683069999999999714e-12
4.480000000000000426e+00 6.466500000000000365e-12
4.500000000000000000e+00 6.256440000000000350e-12
4.519999999999999574e+00 6.052679999999999610e-12
4.540000000000000036e+00 5.855060000000000297e-12
4.559999999999999609e+00 5.663390000000000166e-12
4.580000000000000071e+00 5.477519999999999868e-12
4.599999999999999645e+00 5.297269999999999702e-12
4.620000000000000107e+00 5.122480000000000201e-12
4.639999999999999680e+00 4.953000000000000403e-12
4.660000000000000142e+00 4.788680000000000150e-12
4.679999999999999716e+00 4.629370000000000094e-12
4.700000000000000178e+00 4.474930000000000199e-12
4.719999999999999751e+00 4.325219999999999618e-12
4.740000000000000213e+00 4.180099999999999930e-12
4.769999999999999574e+00 4.039439999999999598e-12
4.790000000000000036e+00 3.903110000000000319e-12
4.809999999999999609e+00 3.770999999999999987e-12
4.830000000000000071e+00 3.642970000000000178e-12
4.849999999999999645e+00 3.518909999999999997e-12
4.870000000000000107e+00 3.398710000000000166e-12
4.889999999999999680e+00 3.282250000000000075e-12
4.910000000000000142e+00 3.169430000000000158e-12
4.929999999999999716e+00 3.060150000000000042e-12
4.950000000000000178e+00 2.954289999999999925e-12
4.969999999999999751e+00 2.851759999999999957e-12
4.990000000000000213e+00 2.752460000000000168e-12
5.009999999999999787e+00 2.656310000000000018e-12
5.030000000000000249e+00 2.563199999999999822e-12
5.049999999999999822e+00 2.473049999999999847e-12
5.070000000000000284e+00 2.385779999999999958e-12
5.089999999999999858e+00 2.301290000000000184e-12
5.110000000000000320e+00 2.219510000000000102e-12
5.129999999999999893e+00 2.140359999999999980e-12
5.150000000000000355e+00 2.063760000000000084e-12
5.169999999999999929e+00 1.989639999999999992e-12
5.190000000000000391e+00 1.917919999999999970e-12
5.209999999999999964e+00 1.848530000000000000e-12
5.230000000000000426e+00 1.781409999999999979e-12
5.250000000000000000e+00 1.716479999999999972e-12
5.269999999999999574e+00 1.653689999999999995e-12
5.290000000000000036e+00 1.592970000000000027e-12
5.309999999999999609e+00 1.534280000000000001e-12
5.330000000000000071e+00 1.477399999999999945e-12
5.349999999999999645e+00 1.422529999999999998e-12
5.370000000000000107e+00 1.369529999999999921e-12
5.389999999999999680e+00 1.318310000000000064e-12
5.410000000000000142e+00 1.268809999999999922e-12
5.429999999999999716e+00 1.220969999999999997e-12
5.450000000000000178e+00 1.174750000000000018e-12
5.469999999999999751e+00 1.130140000000000070e-12
5.490000000000000213e+00 1.087109999999999999e-12
5.509999999999999787e+00 1.045660000000000009e-12
5.530000000000000249e+00 1.005790000000000100e-12
5.549999999999999822e+00 9.675350000000000773e-13
5.570000000000000284e+00 9.309429999999999844e-13
5.589999999999999858e+00 8.960920000000000151e-13
5.610000000000000320e+00 8.630939999999999976e-13
5.629999999999999893e+00 8.320980000000000154e-13
5.650000000000000355e+00 8.032949999999999613e-13
5.669999999999999929e+00 7.769129999999999834e-13
5.690000000000000391e+00 7.532209999999999668e-13
5.709999999999999964e+00 7.325260000000000232e-13
5.730000000000000426e+00 7.151619999999999974e-13
5.750000000000000000e+00 7.014819999999999992e-13
5.769999999999999574e+00 6.918470000000000105e-13
5.790000000000000036e+00 6.866129999999999542e-13
5.809999999999999609e+00 6.861130000000000068e-13
5.830000000000000071e+00 6.906390000000000019e-13
5.849999999999999645e+00 7.004310000000000474e-13
5.870000000000000107e+00 7.156590000000000306e-13
5.889999999999999680e+00 7.364080000000000465e-13
5.910000000000000142e+00 7.626709999999999922e-13
5.929999999999999716e+00 7.943409999999999976e-13
5.950000000000000178e+00 8.312019999999999756e-13
5.969999999999999751e+00 8.729379999999999706e-13
5.990000000000000213e+00 9.191330000000000580e-13
6.009999999999999787e+00 9.692750000000000275e-13
6.030000000000000249e+00 1.022770000000000094e-12
6.049999999999999822e+00 1.078960000000000080e-12
6.070000000000000284e+00 1.137119999999999905e-12
6.089999999999999858e+00 1.196509999999999917e-12
6.110000000000000320e+00 1.256359999999999909e-12
6.129999999999999893e+00 1.315889999999999960e-12
6.150000000000000355e+00 1.374350000000000096e-12
6.169999999999999929e+00 1.431000000000000062e-12
6.190000000000000391e+00 1.485170000000000022e-12
6.209999999999999964e+00 1.536209999999999974e-12
6.230000000000000426e+00 1.583580000000000003e-12
6.250000000000000000e+00 1.626769999999999944e-12
6.269999999999999574e+00 1.665370000000000001e-12
6.290000000000000036e+00 1.699049999999999914e-12
6.309999999999999609e+00 1.727310000000000038e-12
6.330000000000000071e+00 1.750400000000000094e-12
6.349999999999999645e+00 1.767999999999999939e-12
6.370000000000000107e+00 1.780120000000000093e-12
6.389999999999999680e+00 1.786809999999999936e-12
6.410000000000000142e+00 1.788159999999999925e-12
6.429999999999999716e+00 1.784340000000000049e-12
6.450000000000000178e+00 1.775559999999999959e-12
6.469999999999999751e+00 1.762049999999999949e-12
6.490000000000000213e+00 1.744100000000000010e-12
6.509999999999999787e+00 1.722010000000000051e-12
6.530000000000000249e+00 1.696100000000000013e-12
6.549999999999999822e+00 1.666710000000000074e-12
6.570000000000000284e+00 1.634180000000000010e-12
6.589999999999999858e+00 1.598859999999999914e-12
6.610000000000000320e+00 1.561089999999999965e-12
6.629999999999999893e+00 1.521209999999999937e-12
6.650000000000000355e+00 1.479560000000000008e-12
6.669999999999999929e+00 1.436450000000000003e-12
6.690000000000000391e+00 1.392180000000000031e-12
6.709999999999999964e+00 1.347040000000000084e-12
6.730000000000000426e+00 1.301290000000000002e-12
6.750000000000000000e+00 1.255190000000000026e-12
6.769999999999999574e+00 1.208959999999999930e-12
6.790000000000000036e+00 1.162820000000000088e-12
6.809999999999999609e+00 1.116950000000000002e-12
6.830000000000000071e+00 1.071529999999999979e-12
6.849999999999999645e+00 1.026700000000000058e-12
6.870000000000000107e+00 9.826080000000000475e-13
6.889999999999999680e+00 9.393630000000000637e-13
6.910000000000000142e+00 8.970679999999999899e-13
6.929999999999999716e+00 8.558059999999999786e-13
6.950000000000000178e+00 8.156499999999999627e-13
6.969999999999999751e+00 7.766580000000000012e-13
6.990000000000000213e+00 7.388740000000000483e-13
7.009999999999999787e+00 7.023320000000000410e-13
7.030000000000000249e+00 6.670580000000000441e-13
7.049999999999999822e+00 6.330649999999999889e-13
7.070000000000000284e+00 6.003599999999999783e-13
7.089999999999999858e+00 5.689420000000000409e-13
7.110000000000000320e+00 5.388050000000000452e-13
7.129999999999999893e+00 5.099349999999999875e-13
7.150000000000000355e+00 4.823139999999999783e-13
7.169999999999999929e+00 4.559210000000000119e-13
7.190000000000000391e+00 4.307300000000000236e-13
7.209999999999999964e+00 4.067119999999999840e-13
7.230000000000000426e+00 3.838360000000000217e-13
7.259999999999999787e+00 3.620690000000000196e-13
7.280000000000000249e+00 3.413780000000000121e-13
7.299999999999999822e+00 3.217520000000000107e-13
7.320000000000000284e+00 3.031010000000000128e-13
7.339999999999999858e+00 2.854169999999999944e-13
7.360000000000000320e+00 2.686649999999999967e-13
7.379999999999999893e+00 2.528060000000000236e-13
7.400000000000000355e+00 2.378039999999999932e-13
7.419999999999999929e+00 2.236210000000000071e-13
7.440000000000000391e+00 2.102210000000000087e-13
7.459999999999999964e+00 1.975689999999999885e-13
7.480000000000000426e+00 1.856279999999999942e-13
7.500000000000000000e+00 1.743670000000000031e-13
7.519999999999999574e+00 1.637510000000000057e-13
7.540000000000000036e+00 1.537490000000000045e-13
7.559999999999999609e+00 1.443300000000000020e-13
7.580000000000000071e+00 1.354639999999999971e-13
7.599999999999999645e+00 1.271230000000000077e-13
7.620000000000000107e+00 1.192790000000000010e-13
7.639999999999999680e+00 1.119060000000000005e-13
7.660000000000000142e+00 1.049799999999999980e-13
7.679999999999999716e+00 9.847500000000000449e-14
7.700000000000000178e+00 9.236919999999999429e-14
7.719999999999999751e+00 8.664010000000000460e-14
7.740000000000000213e+00 8.126709999999999559e-14
7.759999999999999787e+00 7.622989999999999964e-14
7.780000000000000249e+00 7.150989999999999552e-14
7.799999999999999822e+00 6.708879999999999632e-14
7.820000000000000284e+00 6.294959999999999564e-14
7.839999999999999858e+00 5.907599999999999990e-14
7.860000000000000320e+00 5.545259999999999865e-14
7.879999999999999893e+00 5.206470000000000054e-14
7.900000000000000355e+00 4.889869999999999918e-14
7.919999999999999929e+00 4.594129999999999732e-14
7.940000000000000391e+00 4.318020000000000063e-14
7.959999999999999964e+00 4.060360000000000053e-14
7.980000000000000426e+00 3.820060000000000310e-14
8.000000000000000000e+00 3.596069999999999918e-14
8.019999999999999574e+00 3.387389999999999691e-14
8.039999999999999147e+00 3.193110000000000012e-14
8.060000000000000497e+00 3.012350000000000286e-14
8.080000000000000071e+00 2.844279999999999746e-14
8.099999999999999645e+00 2.688119999999999985e-14
8.119999999999999218e+00 2.543139999999999905e-14
8.140000000000000568e+00 2.408639999999999948e-14
8.160000000000000142e+00 2.283970000000000074e-14
8.179999999999999716e+00 2.168530000000000076e-14
8.199999999999999289e+00 2.061739999999999932e-14
8.220000000000000639e+00 1.963059999999999993e-14
8.240000000000000213e+00 1.871969999999999848e-14
8.259999999999999787e+00 1.787999999999999866e-14
8.279999999999999361e+00 1.710699999999999971e-14
8.300000000000000711e+00 1.639359999999999880e-14
8.320000000000000284e+00 1.574109999999999855e-14
8.339999999999999858e+00 1.514320000000000042e-14
8.359999999999999432e+00 1.459659999999999899e-14
8.380000000000000782e+00 1.409790000000000057e-14
8.400000000000000355e+00 1.364400000000000004e-14
8.419999999999999929e+00 1.323200000000000044e-14
8.439999999999999503e+00 1.285920000000000038e-14
8.460000000000000853e+00 1.252290000000000002e-14
8.480000000000000426e+00 1.222070000000000075e-14
8.500000000000000000e+00 1.195050000000000042e-14
