# log10(T) rate(cm^3/s)
# RecombRates
3.500000000000000000e+00 7.539869999999999860e-12
3.520000000000000018e+00 7.296909999999999853e-12
3.540000000000000036e+00 7.061209999999999959e-12
3.560000000000000053e+00 6.832570000000000238e-12
3.580000000000000071e+00 6.610789999999999945e-12
3.600000000000000089e+00 6.395669999999999949e-12
3.620000000000000107e+00 6.187029999999999740e-12
3.640000000000000124e+00 5.984680000000000304e-12
3.660000000000000142e+00 5.788449999999999635e-12
3.680000000000000160e+00 5.598169999999999763e-12
3.700000000000000178e+00 5.413660000000000179e-12
3.720000000000000195e+00 5.234749999999999682e-12
3.740000000000000213e+00 5.061299999999999850e-12
3.759999999999999787e+00 4.893140000000000292e-12
3.779999999999999805e+00 4.730130000000000162e-12
3.799999999999999822e+00 4.572120000000000111e-12
3.819999999999999840e+00 4.418959999999999984e-12
3.839999999999999858e+00 4.270529999999999980e-12
3.859999999999999876e+00 4.126669999999999823e-12
3.879999999999999893e+00 3.987259999999999713e-12
3.899999999999999911e+00 3.852210000000000203e-12
3.919999999999999929e+00 3.721259999999999837e-12
3.939999999999999947e+00 3.594440000000000182e-12
3.959999999999999964e+00 3.469039999999999928e-12
3.979999999999999982e+00 3.350140000000000102e-12
4.000000000000000000e+00 3.234950000000000064e-12
4.019999999999999574e+00 3.123360000000000133e-12
4.040000000000000036e+00 3.015269999999999934e-12
4.059999999999999609e+00 2.910570000000000188e-12
4.080000000000000071e+00 2.809169999999999833e-12
4.099999999999999645e+00 2.710989999999999942e-12
4.120000000000000107e+00 2.615939999999999858e-12
4.139999999999999680e+00 2.523960000000000082e-12
4.160000000000000142e+00 2.435019999999999857e-12
4.179999999999999716e+00 2.349139999999999823e-12
4.200000000000000178e+00 2.266419999999999949e-12
4.219999999999999751e+00 2.187130000000000193e-12
4.240000000000000213e+00 2.111769999999999997e-12
4.259999999999999787e+00 2.041209999999999943e-12
4.280000000000000249e+00 1.976850000000000003e-12
4.299999999999999822e+00 1.920959999999999925e-12
4.320000000000000284e+00 1.876830000000000193e-12
4.339999999999999858e+00 1.849260000000000140e-12
4.360000000000000320e+00 1.844940000000000013e-12
4.379999999999999893e+00 1.872950000000000011e-12
4.400000000000000355e+00 1.945220000000000066e-12
4.419999999999999929e+00 2.077009999999999851e-12
4.440000000000000391e+00 2.287290000000000041e-12
4.459999999999999964e+00 2.598949999999999947e-12
4.480000000000000426e+00 3.039009999999999993e-12
4.500000000000000000e+00 3.638320000000000192e-12
4.519999999999999574e+00 4.431309999999999624e-12
4.540000000000000036e+00 5.455190000000000305e-12
4.559999999999999609e+00 6.749130000000000344e-12
4.580000000000000071e+00 8.352860000000000418e-12
4.599999999999999645e+00 1.030549999999999966e-11
4.620000000000000107e+00 1.264369999999999953e-11
4.639999999999999680e+00 1.540009999999999938e-11
4.660000000000000142e+00 1.860190000000000054e-11
4.679999999999999716e+00 2.226909999999999848e-11
4.700000000000000178e+00 2.641299999999999903e-11
4.719999999999999751e+00 3.103549999999999716e-11
4.740000000000000213e+00 3.612840000000000265e-11
4.769999999999999574e+00 4.167259999999999835e-11
4.790000000000000036e+00 4.763829999999999746e-11
4.809999999999999609e+00 5.398569999999999846e-11
4.830000000000000071e+00 6.066549999999999591e-11
4.849999999999999645e+00 6.762010000000000103e-11
4.870000000000000107e+00 7.478440000000000595e-11
4.889999999999999680e+00 8.208849999999999782e-11
4.910000000000000142e+00 8.945870000000000614e-11
4.929999999999999716e+00 9.681899999999999933e-11
4.950000000000000178e+00 1.040929999999999992e-10
4.969999999999999751e+00 1.112069999999999966e-10
4.990000000000000213e+00 1.180880000000000114e-10
5.009999999999999787e+00 1.246699999999999944e-10
5.030000000000000249e+00 1.308899999999999999e-10
5.049999999999999822e+00 1.366940000000000038e-10
5.070000000000000284e+00 1.420329999999999995e-10
5.089999999999999858e+00 1.468670000000000058e-10
5.110000000000000320e+00 1.511649999999999893e-10
5.129999999999999893e+00 1.549019999999999941e-10
5.150000000000000355e+00 1.580620000000000121e-10
5.169999999999999929e+00 1.606370000000000006e-10
5.190000000000000391e+00 1.626260000000000028e-10
5.209999999999999964e+00 1.640340000000000097e-10
5.230000000000000426e+00 1.648740000000000037e-10
5.250000000000000000e+00 1.651619999999999928e-10
5.269999999999999574e+00 1.649209999999999933e-10
5.290000000000000036e+00 1.641769999999999956e-10
5.309999999999999609e+00 1.629580000000000074e-10
5.330000000000000071e+00 1.612970000000000015e-10
5.349999999999999645e+00 1.592280000000000110e-10
5.370000000000000107e+00 1.567849999999999916e-10
5.389999999999999680e+00 1.540039999999999937e-10
5.410000000000000142e+00 1.509219999999999985e-10
5.429999999999999716e+00 1.475739999999999962e-10
5.450000000000000178e+00 1.439939999999999941e-10
5.469999999999999751e+00 1.402179999999999908e-10
5.490000000000000213e+00 1.362769999999999938e-10
5.509999999999999787e+00 1.322029999999999931e-10
5.530000000000000249e+00 1.280250000000000051e-10
5.549999999999999822e+00 1.237700000000000027e-10
5.570000000000000284e+00 1.194650000000000109e-10
5.589999999999999858e+00 1.151340000000000028e-10
5.610000000000000320e+00 1.107959999999999992e-10
5.629999999999999893e+00 1.064740000000000037e-10
5.650000000000000355e+00 1.021830000000000027e-10
5.669999999999999929e+00 9.794059999999999729e-11
5.690000000000000391e+00 9.375990000000000159e-11
5.709999999999999964e+00 8.965349999999999962e-11
5.730000000000000426e+00 8.563199999999999701e-11
5.750000000000000000e+00 8.170419999999999430e-11
5.769999999999999574e+00 7.787780000000000325e-11
5.790000000000000036e+00 7.415890000000000382e-11
5.809999999999999609e+00 7.055260000000000615e-11
5.830000000000000071e+00 6.706249999999999460e-11
5.849999999999999645e+00 6.369150000000000179e-11
5.870000000000000107e+00 6.044130000000000096e-11
5.889999999999999680e+00 5.731319999999999938e-11
5.910000000000000142e+00 5.430709999999999747e-11
5.929999999999999716e+00 5.142270000000000302e-11
5.950000000000000178e+00 4.865910000000000054e-11
5.969999999999999751e+00 4.601469999999999698e-11
5.990000000000000213e+00 4.348750000000000105e-11
6.009999999999999787e+00 4.107530000000000290e-11
6.030000000000000249e+00 3.877540000000000136e-11
6.049999999999999822e+00 3.658490000000000257e-11
6.070000000000000284e+00 3.450070000000000061e-11
6.089999999999999858e+00 3.251949999999999689e-11
6.110000000000000320e+00 3.063799999999999930e-11
6.129999999999999893e+00 2.885270000000000044e-11
6.150000000000000355e+00 2.715990000000000022e-11
6.169999999999999929e+00 2.555620000000000050e-11
6.190000000000000391e+00 2.403810000000000033e-11
6.209999999999999964e+00 2.260180000000000008e-11
6.230000000000000426e+00 2.124390000000000160e-11
6.250000000000000000e+00 1.996100000000000027e-11
6.269999999999999574e+00 1.874960000000000161e-11
6.290000000000000036e+00 1.760630000000000102e-11
6.309999999999999609e+00 1.652799999999999904e-11
6.330000000000000071e+00 1.551140000000000033e-11
6.349999999999999645e+00 1.455339999999999896e-11
6.370000000000000107e+00 1.365130000000000020e-11
6.389999999999999680e+00 1.280190000000000021e-11
6.410000000000000142e+00 1.200260000000000058e-11
6.429999999999999716e+00 1.125079999999999968e-11
6.450000000000000178e+00 1.054379999999999956e-11
6.469999999999999751e+00 9.879260000000000053e-12
6.490000000000000213e+00 9.254859999999999603e-12
6.509999999999999787e+00 8.668340000000000604e-12
6.530000000000000249e+00 8.117560000000000400e-12
6.549999999999999822e+00 7.600510000000000296e-12
6.570000000000000284e+00 7.115280000000000354e-12
6.589999999999999858e+00 6.660009999999999609e-12
6.610000000000000320e+00 6.232960000000000131e-12
6.629999999999999893e+00 5.832480000000000205e-12
6.650000000000000355e+00 5.457030000000000225e-12
6.669999999999999929e+00 5.105090000000000010e-12
6.690000000000000391e+00 4.775270000000000109e-12
6.709999999999999964e+00 4.466250000000000280e-12
6.730000000000000426e+00 4.176770000000000185e-12
6.750000000000000000e+00 3.905640000000000310e-12
6.769999999999999574e+00 3.651740000000000351e-12
6.790000000000000036e+00 3.414020000000000027e-12
6.809999999999999609e+00 3.191490000000000167e-12
6.830000000000000071e+00 2.983200000000000052e-12
6.849999999999999645e+00 2.788290000000000027e-12
6.870000000000000107e+00 2.605889999999999916e-12
6.889999999999999680e+00 2.435240000000000032e-12
6.910000000000000142e+00 2.275600000000000118e-12
6.929999999999999716e+00 2.126280000000000104e-12
6.950000000000000178e+00 1.986629999999999987e-12
6.969999999999999751e+00 1.856039999999999834e-12
6.990000000000000213e+00 1.733939999999999981e-12
7.009999999999999787e+00 1.619770000000000074e-12
7.030000000000000249e+00 1.513039999999999983e-12
7.049999999999999822e+00 1.413280000000000012e-12
7.070000000000000284e+00 1.320029999999999980e-12
7.089999999999999858e+00 1.232880000000000094e-12
7.110000000000000320e+00 1.151430000000000073e-12
7.129999999999999893e+00 1.075319999999999905e-12
7.150000000000000355e+00 1.004210000000000020e-12
7.169999999999999929e+00 9.377680000000000084e-13
7.190000000000000391e+00 8.756960000000000079e-13
7.209999999999999964e+00 8.177089999999999845e-13
7.230000000000000426e+00 7.635420000000000397e-13
7.259999999999999787e+00 7.129469999999999912e-13
7.280000000000000249e+00 6.656920000000000073e-13
7.299999999999999822e+00 6.215600000000000294e-13
7.320000000000000284e+00 5.803449999999999874e-13
7.339999999999999858e+00 5.418569999999999599e-13
7.360000000000000320e+00 5.059200000000000293e-13
7.379999999999999893e+00 4.723649999999999769e-13
7.400000000000000355e+00 4.410360000000000203e-13
7.419999999999999929e+00 4.117869999999999901e-13
7.440000000000000391e+00 3.844819999999999868e-13
7.459999999999999964e+00 3.589929999999999830e-13
7.480000000000000426e+00 3.352009999999999972e-13
7.500000000000000000e+00 3.129929999999999771e-13
7.519999999999999574e+00 2.922659999999999888e-13
7.540000000000000036e+00 2.729220000000000057e-13
7.559999999999999609e+00 2.548689999999999816e-13
7.580000000000000071e+00 2.380229999999999946e-13
7.599999999999999645e+00 2.223040000000000088e-13
7.620000000000000107e+00 2.076369999999999967e-13
7.639999999999999680e+00 1.939530000000000117e-13
7.660000000000000142e+00 1.811869999999999932e-13
7.679999999999999716e+00 1.692769999999999965e-13
7.700000000000000178e+00 1.581680000000000032e-13
7.719999999999999751e+00 1.478059999999999914e-13
7.740000000000000213e+00 1.381419999999999984e-13
7.759999999999999787e+00 1.291290000000000044e-13
7.780000000000000249e+00 1.207249999999999980e-13
7.799999999999999822e+00 1.128880000000000058e-13
7.820000000000000284e+00 1.055809999999999997e-13
7.839999999999999858e+00 9.876919999999999732e-14
7.860000000000000320e+00 9.241769999999999656e-14
7.879999999999999893e+00 8.649870000000000431e-14
7.900000000000000355e+00 8.098230000000000169e-14
7.919999999999999929e+00 7.584159999999999765e-14
7.940000000000000391e+00 7.105159999999999989e-14
7.959999999999999964e+00 6.658900000000000030e-14
7.980000000000000426e+00 6.243190000000000381e-14
8.000000000000000000e+00 5.855989999999999769e-14
8.019999999999999574e+00 5.495400000000000116e-14
8.039999999999999147e+00 5.159640000000000040e-14
8.060000000000000497e+00 4.847049999999999905e-14
8.080000000000000071e+00 4.556089999999999926e-14
8.099999999999999645e+00 4.285299999999999799e-14
8.119999999999999218e+00 4.033349999999999798e-14
8.140000000000000568e+00 3.798939999999999840e-14
8.160000000000000142e+00 3.580919999999999978e-14
8.179999999999999716e+00 3.378180000000000000e-14
8.199999999999999289e+00 3.189709999999999997e-14
8.220000000000000639e+00 3.014529999999999702e-14
8.240000000000000213e+00 2.851759999999999781e-14
8.259999999999999787e+00 2.700549999999999913e-14
8.279999999999999361e+00 2.560139999999999984e-14
8.300000000000000711e+00 2.429769999999999879e-14
8.320000000000000284e+00 2.308789999999999874e-14
8.339999999999999858e+00 2.196549999999999928e-14
8.359999999999999432e+00 2.092459999999999926e-14
8.380000000000000782e+00 1.995960000000000035e-14
8.400000000000000355e+00 1.906550000000000027e-14
8.419999999999999929e+00 1.823729999999999995e-14
8.439999999999999503e+00 1.747070000000000047e-14
8.460000000000000853e+00 1.676120000000000107e-14
8.480000000000000426e+00 1.610509999999999895e-14
8.500000000000000000e+00 1.549859999999999984e-14
