# log10(T) rate(cm^3/s)
# RecombRates
3.500000000000000000e+00 5.651909999999999976e-11
3.520000000000000018e+00 5.483049999999999745e-11
3.540000000000000036e+00 5.318980000000000021e-11
3.560000000000000053e+00 5.159570000000000077e-11
3.580000000000000071e+00 5.004679999999999875e-11
3.600000000000000089e+00 4.854189999999999938e-11
3.620000000000000107e+00 4.707990000000000097e-11
3.640000000000000124e+00 4.565950000000000270e-11
3.660000000000000142e+00 4.427970000000000246e-11
3.680000000000000160e+00 4.293919999999999943e-11
3.700000000000000178e+00 4.163709999999999754e-11
3.720000000000000195e+00 4.037230000000000156e-11
3.740000000000000213e+00 3.914369999999999688e-11
3.759999999999999787e+00 3.795040000000000034e-11
3.779999999999999805e+00 3.679139999999999689e-11
3.799999999999999822e+00 3.566579999999999692e-11
3.819999999999999840e+00 3.457249999999999874e-11
3.839999999999999858e+00 3.351079999999999894e-11
3.859999999999999876e+00 3.247970000000000185e-11
3.879999999999999893e+00 3.147849999999999759e-11
3.899999999999999911e+00 3.050630000000000300e-11
3.919999999999999929e+00 2.956220000000000262e-11
3.939999999999999947e+00 2.864559999999999903e-11
3.959999999999999964e+00 2.775559999999999939e-11
3.979999999999999982e+00 2.689150000000000027e-11
4.000000000000000000e+00 2.605270000000000106e-11
4.019999999999999574e+00 2.523829999999999920e-11
4.040000000000000036e+00 2.444770000000000053e-11
4.059999999999999609e+00 2.368030000000000119e-11
4.080000000000000071e+00 2.293540000000000100e-11
4.099999999999999645e+00 2.221239999999999934e-11
4.120000000000000107e+00 2.151059999999999924e-11
4.139999999999999680e+00 2.082949999999999965e-11
4.160000000000000142e+00 2.016849999999999994e-11
4.179999999999999716e+00 1.952709999999999906e-11
4.200000000000000178e+00 1.890460000000000004e-11
4.219999999999999751e+00 1.830060000000000141e-11
4.240000000000000213e+00 1.771449999999999929e-11
4.259999999999999787e+00 1.714589999999999866e-11
4.280000000000000249e+00 1.659419999999999890e-11
4.299999999999999822e+00 1.605899999999999852e-11
4.320000000000000284e+00 1.553970000000000011e-11
4.339999999999999858e+00 1.503610000000000133e-11
4.360000000000000320e+00 1.454750000000000036e-11
4.379999999999999893e+00 1.407369999999999970e-11
4.400000000000000355e+00 1.361410000000000032e-11
4.419999999999999929e+00 1.316840000000000031e-11
4.440000000000000391e+00 1.273619999999999979e-11
4.459999999999999964e+00 1.231699999999999932e-11
4.480000000000000426e+00 1.191059999999999976e-11
4.500000000000000000e+00 1.151659999999999962e-11
4.519999999999999574e+00 1.113460000000000064e-11
4.540000000000000036e+00 1.076419999999999971e-11
4.559999999999999609e+00 1.040519999999999932e-11
4.580000000000000071e+00 1.005719999999999960e-11
4.599999999999999645e+00 9.720040000000000253e-12
4.620000000000000107e+00 9.393380000000000512e-12
4.639999999999999680e+00 9.077069999999999409e-12
4.660000000000000142e+00 8.770879999999999882e-12
4.679999999999999716e+00 8.475099999999999703e-12
4.700000000000000178e+00 8.182990000000000052e-12
4.719999999999999751e+00 7.909200000000000266e-12
4.740000000000000213e+00 7.647520000000000517e-12
4.769999999999999574e+00 7.399620000000000331e-12
4.790000000000000036e+00 7.167950000000000370e-12
4.809999999999999609e+00 6.956030000000000199e-12
4.830000000000000071e+00 6.768670000000000076e-12
4.849999999999999645e+00 6.612240000000000106e-12
4.870000000000000107e+00 6.494860000000000055e-12
4.889999999999999680e+00 6.426999999999999978e-12
4.910000000000000142e+00 6.420740000000000367e-12
4.929999999999999716e+00 6.490760000000000103e-12
4.950000000000000178e+00 6.653859999999999680e-12
4.969999999999999751e+00 6.928839999999999787e-12
4.990000000000000213e+00 7.336350000000000339e-12
5.009999999999999787e+00 7.897399999999999852e-12
5.030000000000000249e+00 8.634809999999999635e-12
5.049999999999999822e+00 9.570490000000000754e-12
5.070000000000000284e+00 1.072549999999999989e-11
5.089999999999999858e+00 1.211909999999999993e-11
5.110000000000000320e+00 1.376769999999999999e-11
5.129999999999999893e+00 1.568440000000000131e-11
5.150000000000000355e+00 1.787799999999999955e-11
5.169999999999999929e+00 2.035210000000000009e-11
5.190000000000000391e+00 2.310529999999999930e-11
5.209999999999999964e+00 2.613029999999999984e-11
5.230000000000000426e+00 2.941410000000000005e-11
5.250000000000000000e+00 3.293790000000000084e-11
5.269999999999999574e+00 3.667760000000000035e-11
5.290000000000000036e+00 4.060410000000000225e-11
5.309999999999999609e+00 4.468410000000000263e-11
5.330000000000000071e+00 4.888050000000000119e-11
5.349999999999999645e+00 5.315360000000000244e-11
5.370000000000000107e+00 5.746179999999999977e-11
5.389999999999999680e+00 6.176249999999999739e-11
5.410000000000000142e+00 6.601299999999999993e-11
5.429999999999999716e+00 7.017139999999999562e-11
5.450000000000000178e+00 7.419779999999999632e-11
5.469999999999999751e+00 7.805410000000000605e-11
5.490000000000000213e+00 8.170520000000000288e-11
5.509999999999999787e+00 8.511990000000000609e-11
5.530000000000000249e+00 8.827050000000000036e-11
5.549999999999999822e+00 9.113359999999999691e-11
5.570000000000000284e+00 9.368989999999999562e-11
5.589999999999999858e+00 9.592519999999999358e-11
5.610000000000000320e+00 9.782819999999999466e-11
5.629999999999999893e+00 9.939360000000000251e-11
5.650000000000000355e+00 1.006190000000000017e-10
5.669999999999999929e+00 1.015069999999999939e-10
5.690000000000000391e+00 1.020610000000000030e-10
5.709999999999999964e+00 1.022909999999999986e-10
5.730000000000000426e+00 1.022079999999999975e-10
5.750000000000000000e+00 1.018260000000000033e-10
5.769999999999999574e+00 1.011589999999999942e-10
5.790000000000000036e+00 1.002260000000000037e-10
5.809999999999999609e+00 9.904419999999999594e-11
5.830000000000000071e+00 9.763430000000000374e-11
5.849999999999999645e+00 9.601599999999999962e-11
5.870000000000000107e+00 9.421000000000000347e-11
5.889999999999999680e+00 9.223639999999999904e-11
5.910000000000000142e+00 9.011569999999999415e-11
5.929999999999999716e+00 8.786779999999999926e-11
5.950000000000000178e+00 8.551189999999999553e-11
5.969999999999999751e+00 8.306669999999999864e-11
5.990000000000000213e+00 8.054939999999999845e-11
6.009999999999999787e+00 7.797710000000000466e-11
6.030000000000000249e+00 7.536560000000000029e-11
6.049999999999999822e+00 7.272919999999999427e-11
6.070000000000000284e+00 7.008130000000000593e-11
6.089999999999999858e+00 6.743459999999999945e-11
6.110000000000000320e+00 6.480010000000000456e-11
6.129999999999999893e+00 6.218800000000000280e-11
6.150000000000000355e+00 5.960720000000000071e-11
6.169999999999999929e+00 5.706580000000000186e-11
6.190000000000000391e+00 5.457090000000000126e-11
6.209999999999999964e+00 5.212849999999999866e-11
6.230000000000000426e+00 4.974369999999999775e-11
6.250000000000000000e+00 4.742089999999999881e-11
6.269999999999999574e+00 4.516369999999999909e-11
6.290000000000000036e+00 4.297489999999999937e-11
6.309999999999999609e+00 4.085649999999999741e-11
6.330000000000000071e+00 3.881039999999999788e-11
6.349999999999999645e+00 3.683749999999999687e-11
6.370000000000000107e+00 3.493829999999999866e-11
6.389999999999999680e+00 3.311300000000000239e-11
6.410000000000000142e+00 3.136130000000000290e-11
6.429999999999999716e+00 2.968250000000000322e-11
6.450000000000000178e+00 2.807580000000000039e-11
6.469999999999999751e+00 2.653999999999999960e-11
6.490000000000000213e+00 2.507360000000000092e-11
6.509999999999999787e+00 2.367520000000000074e-11
6.530000000000000249e+00 2.234300000000000042e-11
6.549999999999999822e+00 2.107499999999999896e-11
6.570000000000000284e+00 1.986950000000000051e-11
6.589999999999999858e+00 1.872390000000000022e-11
6.610000000000000320e+00 1.763690000000000051e-11
6.629999999999999893e+00 1.660589999999999975e-11
6.650000000000000355e+00 1.562890000000000018e-11
6.669999999999999929e+00 1.470369999999999843e-11
6.690000000000000391e+00 1.382820000000000039e-11
6.709999999999999964e+00 1.300030000000000066e-11
6.730000000000000426e+00 1.221780000000000071e-11
6.750000000000000000e+00 1.147880000000000073e-11
6.769999999999999574e+00 1.078120000000000015e-11
6.790000000000000036e+00 1.012310000000000076e-11
6.809999999999999609e+00 9.502439999999999241e-12
6.830000000000000071e+00 8.917499999999999514e-12
6.849999999999999645e+00 8.366429999999999925e-12
6.870000000000000107e+00 7.847509999999999547e-12
6.889999999999999680e+00 7.359079999999999779e-12
6.910000000000000142e+00 6.899520000000000069e-12
6.929999999999999716e+00 6.467290000000000002e-12
6.950000000000000178e+00 6.060899999999999751e-12
6.969999999999999751e+00 5.678969999999999984e-12
6.990000000000000213e+00 5.320150000000000105e-12
7.009999999999999787e+00 4.983099999999999638e-12
7.030000000000000249e+00 4.666629999999999877e-12
7.049999999999999822e+00 4.369569999999999929e-12
7.070000000000000284e+00 4.090780000000000064e-12
7.089999999999999858e+00 3.829220000000000116e-12
7.110000000000000320e+00 3.583900000000000107e-12
7.129999999999999893e+00 3.353849999999999891e-12
7.150000000000000355e+00 3.138170000000000148e-12
7.169999999999999929e+00 2.936000000000000010e-12
7.190000000000000391e+00 2.746549999999999843e-12
7.209999999999999964e+00 2.569040000000000128e-12
7.230000000000000426e+00 2.402739999999999918e-12
7.259999999999999787e+00 2.246980000000000186e-12
7.280000000000000249e+00 2.101129999999999954e-12
7.299999999999999822e+00 1.964559999999999860e-12
7.320000000000000284e+00 1.836700000000000040e-12
7.339999999999999858e+00 1.717030000000000005e-12
7.360000000000000320e+00 1.605019999999999961e-12
7.379999999999999893e+00 1.500200000000000009e-12
7.400000000000000355e+00 1.402130000000000004e-12
7.419999999999999929e+00 1.310369999999999999e-12
7.440000000000000391e+00 1.224539999999999950e-12
7.459999999999999964e+00 1.144260000000000013e-12
7.480000000000000426e+00 1.069169999999999977e-12
7.500000000000000000e+00 9.989549999999999576e-13
7.519999999999999574e+00 9.332959999999999846e-13
7.540000000000000036e+00 8.719069999999999521e-13
7.559999999999999609e+00 8.145110000000000015e-13
7.580000000000000071e+00 7.608580000000000079e-13
7.599999999999999645e+00 7.107429999999999736e-13
7.620000000000000107e+00 6.638669999999999621e-13
7.639999999999999680e+00 6.200609999999999567e-13
7.660000000000000142e+00 5.791290000000000055e-13
7.679999999999999716e+00 5.408819999999999565e-13
7.700000000000000178e+00 5.051500000000000235e-13
7.719999999999999751e+00 4.717679999999999745e-13
7.740000000000000213e+00 4.405860000000000070e-13
7.759999999999999787e+00 4.114580000000000023e-13
7.780000000000000249e+00 3.842530000000000188e-13
7.799999999999999822e+00 3.588440000000000005e-13
7.820000000000000284e+00 3.351160000000000031e-13
7.839999999999999858e+00 3.129589999999999895e-13
7.860000000000000320e+00 2.922699999999999754e-13
7.879999999999999893e+00 2.729540000000000000e-13
7.900000000000000355e+00 2.549210000000000101e-13
7.919999999999999929e+00 2.380880000000000049e-13
7.940000000000000391e+00 2.223769999999999924e-13
7.959999999999999964e+00 2.077139999999999922e-13
7.980000000000000426e+00 1.940320000000000006e-13
8.000000000000000000e+00 1.812650000000000107e-13
8.019999999999999574e+00 1.693539999999999921e-13
8.039999999999999147e+00 1.582440000000000020e-13
8.060000000000000497e+00 1.478819999999999903e-13
8.080000000000000071e+00 1.382199999999999906e-13
8.099999999999999645e+00 1.292100000000000119e-13
8.119999999999999218e+00 1.208120000000000107e-13
8.140000000000000568e+00 1.129840000000000010e-13
8.160000000000000142e+00 1.056900000000000020e-13
8.179999999999999716e+00 9.889439999999999864e-14
8.199999999999999289e+00 9.256460000000000374e-14
8.220000000000000639e+00 8.667010000000000548e-14
8.240000000000000213e+00 8.118259999999999983e-14
8.259999999999999787e+00 7.607510000000000115e-14
8.279999999999999361e+00 7.132290000000000096e-14
8.300000000000000711e+00 6.690250000000000195e-14
8.320000000000000284e+00 6.279219999999999825e-14
8.339999999999999858e+00 5.897160000000000239e-14
8.359999999999999432e+00 5.542170000000000203e-14
8.380000000000000782e+00 5.212479999999999692e-14
8.400000000000000355e+00 4.906429999999999698e-14
8.419999999999999929e+00 4.622429999999999974e-14
8.439999999999999503e+00 4.359070000000000050e-14
8.460000000000000853e+00 4.114960000000000270e-14
8.480000000000000426e+00 3.888840000000000295e-14
8.500000000000000000e+00 3.679519999999999805e-14
