# log10(T) rate(cm^3/s)
# RecombRates
3.500000000000000000e+00 1.254000000000000012e-10
3.520000000000000018e+00 1.217190000000000116e-10
3.540000000000000036e+00 1.181410000000000008e-10
3.560000000000000053e+00 1.146640000000000034e-10
3.580000000000000071e+00 1.112830000000000023e-10
3.600000000000000089e+00 1.079979999999999976e-10
3.620000000000000107e+00 1.048049999999999938e-10
3.640000000000000124e+00 1.017019999999999994e-10
3.660000000000000142e+00 9.868620000000000090e-11
3.680000000000000160e+00 9.575539999999999485e-11
3.700000000000000178e+00 9.290729999999999773e-11
3.720000000000000195e+00 9.013960000000000014e-11
3.740000000000000213e+00 8.745020000000000475e-11
3.759999999999999787e+00 8.483689999999999528e-11
3.779999999999999805e+00 8.229760000000000023e-11
3.799999999999999822e+00 7.983039999999999556e-11
3.819999999999999840e+00 7.743319999999999685e-11
3.839999999999999858e+00 7.510419999999999900e-11
3.859999999999999876e+00 7.284139999999999777e-11
3.879999999999999893e+00 7.064320000000000013e-11
3.899999999999999911e+00 6.850760000000000184e-11
3.919999999999999929e+00 6.643299999999999693e-11
3.939999999999999947e+00 6.441769999999999925e-11
3.959999999999999964e+00 6.246010000000000282e-11
3.979999999999999982e+00 6.055869999999999479e-11
4.000000000000000000e+00 5.871180000000000192e-11
4.019999999999999574e+00 5.691789999999999843e-11
4.040000000000000036e+00 5.517559999999999685e-11
4.059999999999999609e+00 5.348349999999999682e-11
4.080000000000000071e+00 5.184029999999999752e-11
4.099999999999999645e+00 5.024439999999999945e-11
4.120000000000000107e+00 4.869470000000000091e-11
4.139999999999999680e+00 4.718990000000000110e-11
4.160000000000000142e+00 4.572869999999999921e-11
4.179999999999999716e+00 4.430990000000000045e-11
4.200000000000000178e+00 4.293229999999999711e-11
4.219999999999999751e+00 4.159490000000000000e-11
4.240000000000000213e+00 4.029640000000000185e-11
4.259999999999999787e+00 3.903590000000000010e-11
4.280000000000000249e+00 3.781219999999999998e-11
4.299999999999999822e+00 3.662429999999999935e-11
4.320000000000000284e+00 3.547130000000000214e-11
4.339999999999999858e+00 3.435229999999999934e-11
4.360000000000000320e+00 3.326630000000000175e-11
4.379999999999999893e+00 3.221249999999999992e-11
4.400000000000000355e+00 3.119019999999999689e-11
4.419999999999999929e+00 3.019870000000000217e-11
4.440000000000000391e+00 2.923759999999999812e-11
4.459999999999999964e+00 2.830669999999999852e-11
4.480000000000000426e+00 2.740580000000000102e-11
4.500000000000000000e+00 2.653540000000000020e-11
4.519999999999999574e+00 2.569609999999999993e-11
4.540000000000000036e+00 2.488899999999999866e-11
4.559999999999999609e+00 2.411590000000000148e-11
4.580000000000000071e+00 2.337909999999999840e-11
4.599999999999999645e+00 2.268149999999999943e-11
4.620000000000000107e+00 2.202680000000000142e-11
4.639999999999999680e+00 2.141929999999999861e-11
4.660000000000000142e+00 2.086410000000000114e-11
4.679999999999999716e+00 2.036690000000000039e-11
4.700000000000000178e+00 1.993420000000000042e-11
4.719999999999999751e+00 1.957319999999999903e-11
4.740000000000000213e+00 1.929190000000000022e-11
4.769999999999999574e+00 1.909899999999999849e-11
4.790000000000000036e+00 1.900429999999999971e-11
4.809999999999999609e+00 1.901880000000000131e-11
4.830000000000000071e+00 1.915459999999999918e-11
4.849999999999999645e+00 1.942570000000000032e-11
4.870000000000000107e+00 1.984759999999999875e-11
4.889999999999999680e+00 2.043779999999999921e-11
4.910000000000000142e+00 2.121600000000000007e-11
4.929999999999999716e+00 2.220349999999999925e-11
4.950000000000000178e+00 2.342380000000000123e-11
4.969999999999999751e+00 2.490079999999999907e-11
4.990000000000000213e+00 2.666010000000000108e-11
5.009999999999999787e+00 2.871950000000000097e-11
5.030000000000000249e+00 3.111740000000000310e-11
5.049999999999999822e+00 3.386759999999999919e-11
5.070000000000000284e+00 3.698879999999999846e-11
5.089999999999999858e+00 4.049379999999999695e-11
5.110000000000000320e+00 4.439079999999999781e-11
5.129999999999999893e+00 4.868049999999999800e-11
5.150000000000000355e+00 5.335659999999999905e-11
5.169999999999999929e+00 5.840449999999999979e-11
5.190000000000000391e+00 6.380150000000000193e-11
5.209999999999999964e+00 6.951630000000000581e-11
5.230000000000000426e+00 7.551040000000000427e-11
5.250000000000000000e+00 8.173740000000000510e-11
5.269999999999999574e+00 8.814499999999999650e-11
5.290000000000000036e+00 9.467590000000000132e-11
5.309999999999999609e+00 1.012689999999999943e-10
5.330000000000000071e+00 1.078589999999999943e-10
5.349999999999999645e+00 1.143820000000000011e-10
5.370000000000000107e+00 1.207750000000000043e-10
5.389999999999999680e+00 1.269719999999999933e-10
5.410000000000000142e+00 1.329160000000000092e-10
5.429999999999999716e+00 1.385489999999999938e-10
5.450000000000000178e+00 1.438219999999999920e-10
5.469999999999999751e+00 1.486889999999999970e-10
5.490000000000000213e+00 1.531119999999999930e-10
5.509999999999999787e+00 1.570580000000000071e-10
5.530000000000000249e+00 1.605029999999999885e-10
5.549999999999999822e+00 1.634289999999999895e-10
5.570000000000000284e+00 1.658240000000000107e-10
5.589999999999999858e+00 1.676830000000000092e-10
5.610000000000000320e+00 1.690080000000000020e-10
5.629999999999999893e+00 1.698059999999999976e-10
5.650000000000000355e+00 1.700889999999999955e-10
5.669999999999999929e+00 1.698730000000000037e-10
5.690000000000000391e+00 1.691800000000000041e-10
5.709999999999999964e+00 1.680329999999999873e-10
5.730000000000000426e+00 1.664590000000000039e-10
5.750000000000000000e+00 1.644880000000000011e-10
5.769999999999999574e+00 1.621500000000000036e-10
5.790000000000000036e+00 1.594759999999999930e-10
5.809999999999999609e+00 1.564989999999999938e-10
5.830000000000000071e+00 1.532520000000000049e-10
5.849999999999999645e+00 1.497649999999999993e-10
5.870000000000000107e+00 1.460720000000000101e-10
5.889999999999999680e+00 1.422030000000000103e-10
5.910000000000000142e+00 1.381869999999999903e-10
5.929999999999999716e+00 1.340529999999999919e-10
5.950000000000000178e+00 1.298270000000000057e-10
5.969999999999999751e+00 1.255349999999999961e-10
5.990000000000000213e+00 1.212009999999999881e-10
6.009999999999999787e+00 1.168460000000000068e-10
6.030000000000000249e+00 1.124889999999999954e-10
6.049999999999999822e+00 1.081510000000000048e-10
6.070000000000000284e+00 1.038460000000000000e-10
6.089999999999999858e+00 9.958949999999999767e-11
6.110000000000000320e+00 9.539530000000000247e-11
6.129999999999999893e+00 9.127469999999999759e-11
6.150000000000000355e+00 8.723750000000000506e-11
6.169999999999999929e+00 8.329260000000000559e-11
6.190000000000000391e+00 7.944729999999999975e-11
6.209999999999999964e+00 7.570749999999999421e-11
6.230000000000000426e+00 7.207810000000000001e-11
6.250000000000000000e+00 6.856279999999999458e-11
6.269999999999999574e+00 6.516469999999999677e-11
6.290000000000000036e+00 6.188550000000000565e-11
6.309999999999999609e+00 5.872609999999999793e-11
6.330000000000000071e+00 5.568730000000000244e-11
6.349999999999999645e+00 5.276890000000000066e-11
6.370000000000000107e+00 4.996969999999999780e-11
6.389999999999999680e+00 4.728869999999999822e-11
6.410000000000000142e+00 4.472399999999999724e-11
6.429999999999999716e+00 4.227359999999999710e-11
6.450000000000000178e+00 3.993490000000000263e-11
6.469999999999999751e+00 3.770519999999999972e-11
6.490000000000000213e+00 3.558180000000000011e-11
6.509999999999999787e+00 3.356139999999999874e-11
6.530000000000000249e+00 3.164080000000000307e-11
6.549999999999999822e+00 2.981670000000000158e-11
6.570000000000000284e+00 2.808559999999999980e-11
6.589999999999999858e+00 2.644419999999999914e-11
6.610000000000000320e+00 2.488879999999999953e-11
6.629999999999999893e+00 2.341609999999999915e-11
6.650000000000000355e+00 2.202269999999999985e-11
6.669999999999999929e+00 2.070510000000000070e-11
6.690000000000000391e+00 1.945990000000000031e-11
6.709999999999999964e+00 1.828380000000000010e-11
6.730000000000000426e+00 1.717370000000000062e-11
6.750000000000000000e+00 1.612639999999999962e-11
6.769999999999999574e+00 1.513880000000000088e-11
6.790000000000000036e+00 1.420799999999999924e-11
6.809999999999999609e+00 1.333120000000000039e-11
6.830000000000000071e+00 1.250550000000000079e-11
6.849999999999999645e+00 1.172830000000000042e-11
6.870000000000000107e+00 1.099699999999999929e-11
6.889999999999999680e+00 1.030929999999999930e-11
6.910000000000000142e+00 9.662160000000000099e-12
6.929999999999999716e+00 9.054290000000000186e-12
6.950000000000000178e+00 8.483130000000000023e-12
6.969999999999999751e+00 7.946610000000000205e-12
6.990000000000000213e+00 7.442819999999999986e-12
7.009999999999999787e+00 6.969879999999999782e-12
7.030000000000000249e+00 6.526050000000000046e-12
7.049999999999999822e+00 6.109630000000000090e-12
7.070000000000000284e+00 5.719019999999999596e-12
7.089999999999999858e+00 5.352710000000000120e-12
7.110000000000000320e+00 5.009270000000000121e-12
7.129999999999999893e+00 4.687320000000000266e-12
7.150000000000000355e+00 4.385569999999999861e-12
7.169999999999999929e+00 4.102820000000000081e-12
7.190000000000000391e+00 3.837920000000000271e-12
7.209999999999999964e+00 3.589780000000000078e-12
7.230000000000000426e+00 3.357360000000000146e-12
7.259999999999999787e+00 3.139729999999999992e-12
7.280000000000000249e+00 2.935959999999999942e-12
7.299999999999999822e+00 2.745230000000000006e-12
7.320000000000000284e+00 2.566670000000000008e-12
7.339999999999999858e+00 2.399549999999999807e-12
7.360000000000000320e+00 2.243170000000000023e-12
7.379999999999999893e+00 2.096849999999999895e-12
7.400000000000000355e+00 1.959949999999999944e-12
7.419999999999999929e+00 1.831890000000000184e-12
7.440000000000000391e+00 1.712099999999999945e-12
7.459999999999999964e+00 1.600070000000000067e-12
7.480000000000000426e+00 1.495289999999999983e-12
7.500000000000000000e+00 1.397299999999999913e-12
7.519999999999999574e+00 1.305690000000000064e-12
7.540000000000000036e+00 1.220020000000000086e-12
7.559999999999999609e+00 1.139929999999999970e-12
7.580000000000000071e+00 1.065059999999999907e-12
7.599999999999999645e+00 9.950679999999999763e-13
7.620000000000000107e+00 9.296429999999999799e-13
7.639999999999999680e+00 8.684880000000000249e-13
7.660000000000000142e+00 8.113300000000000376e-13
7.679999999999999716e+00 7.579089999999999768e-13
7.700000000000000178e+00 7.079829999999999934e-13
7.719999999999999751e+00 6.613259999999999833e-13
7.740000000000000213e+00 6.177260000000000479e-13
7.759999999999999787e+00 5.769830000000000467e-13
7.780000000000000249e+00 5.389129999999999878e-13
7.799999999999999822e+00 5.033399999999999535e-13
7.820000000000000284e+00 4.701050000000000451e-13
7.839999999999999858e+00 4.390519999999999754e-13
7.860000000000000320e+00 4.100410000000000095e-13
7.879999999999999893e+00 3.829379999999999885e-13
7.900000000000000355e+00 3.576729999999999947e-13
7.919999999999999929e+00 3.340200000000000247e-13
7.940000000000000391e+00 3.119309999999999862e-13
7.959999999999999964e+00 2.913060000000000110e-13
7.980000000000000426e+00 2.720479999999999935e-13
8.000000000000000000e+00 2.540680000000000035e-13
8.019999999999999574e+00 2.372820000000000183e-13
8.039999999999999147e+00 2.216119999999999952e-13
8.060000000000000497e+00 2.069850000000000011e-13
8.080000000000000071e+00 1.933330000000000104e-13
8.099999999999999645e+00 1.805899999999999908e-13
8.119999999999999218e+00 1.687000000000000031e-13
8.140000000000000568e+00 1.576029999999999950e-13
8.160000000000000142e+00 1.472500000000000037e-13
8.179999999999999716e+00 1.375930000000000126e-13
8.199999999999999289e+00 1.285850000000000019e-13
8.220000000000000639e+00 1.201840000000000107e-13
8.240000000000000213e+00 1.123520000000000018e-13
8.259999999999999787e+00 1.050519999999999976e-13
8.279999999999999361e+00 9.824800000000000455e-14
8.300000000000000711e+00 9.190899999999999995e-14
8.320000000000000284e+00 8.600499999999999552e-14
8.339999999999999858e+00 8.050790000000000171e-14
8.359999999999999432e+00 7.539139999999999519e-14
8.380000000000000782e+00 7.063110000000000183e-14
8.400000000000000355e+00 6.620419999999999926e-14
8.419999999999999929e+00 6.208869999999999776e-14
8.439999999999999503e+00 5.826519999999999391e-14
8.460000000000000853e+00 5.471429999999999689e-14
8.480000000000000426e+00 5.141879999999999846e-14
8.500000000000000000e+00 4.836219999999999688e-14
