# log10(T) rate(cm^3/s)
# RecombRates
3.500000000000000000e+00 6.875049999999999952e-10
3.520000000000000018e+00 6.681679999999999616e-10
3.540000000000000036e+00 6.493559999999999856e-10
3.560000000000000053e+00 6.310559999999999558e-10
3.580000000000000071e+00 6.132539999999999587e-10
3.600000000000000089e+00 5.959369999999999864e-10
3.620000000000000107e+00 5.790910000000000220e-10
3.640000000000000124e+00 5.627049999999999713e-10
3.660000000000000142e+00 5.467660000000000328e-10
3.680000000000000160e+00 5.312630000000000089e-10
3.700000000000000178e+00 5.161829999999999948e-10
3.720000000000000195e+00 5.015149999999999995e-10
3.740000000000000213e+00 4.872490000000000407e-10
3.759999999999999787e+00 4.733730000000000155e-10
3.779999999999999805e+00 4.598780000000000016e-10
3.799999999999999822e+00 4.467540000000000167e-10
3.819999999999999840e+00 4.339890000000000096e-10
3.839999999999999858e+00 4.215750000000000150e-10
3.859999999999999876e+00 4.095019999999999989e-10
3.879999999999999893e+00 3.977619999999999960e-10
3.899999999999999911e+00 3.863450000000000240e-10
3.919999999999999929e+00 3.752430000000000141e-10
3.939999999999999947e+00 3.644469999999999927e-10
3.959999999999999964e+00 3.539479999999999858e-10
3.979999999999999982e+00 3.437399999999999938e-10
4.000000000000000000e+00 3.338149999999999996e-10
4.019999999999999574e+00 3.241639999999999778e-10
4.040000000000000036e+00 3.147800000000000235e-10
4.059999999999999609e+00 3.056569999999999817e-10
4.080000000000000071e+00 2.967859999999999820e-10
4.099999999999999645e+00 2.881619999999999816e-10
4.120000000000000107e+00 2.797780000000000238e-10
4.139999999999999680e+00 2.716269999999999968e-10
4.160000000000000142e+00 2.637030000000000043e-10
4.179999999999999716e+00 2.559999999999999949e-10
4.200000000000000178e+00 2.485120000000000203e-10
4.219999999999999751e+00 2.412329999999999775e-10
4.240000000000000213e+00 2.341570000000000218e-10
4.259999999999999787e+00 2.272790000000000069e-10
4.280000000000000249e+00 2.205939999999999932e-10
4.299999999999999822e+00 2.140969999999999897e-10
4.320000000000000284e+00 2.077809999999999880e-10
4.339999999999999858e+00 2.016429999999999881e-10
4.360000000000000320e+00 1.956779999999999988e-10
4.379999999999999893e+00 1.898799999999999947e-10
4.400000000000000355e+00 1.842460000000000015e-10
4.419999999999999929e+00 1.787699999999999937e-10
4.440000000000000391e+00 1.734500000000000059e-10
4.459999999999999964e+00 1.682790000000000038e-10
4.480000000000000426e+00 1.632549999999999961e-10
4.500000000000000000e+00 1.583729999999999917e-10
4.519999999999999574e+00 1.536290000000000079e-10
4.540000000000000036e+00 1.490199999999999931e-10
4.559999999999999609e+00 1.445419999999999906e-10
4.580000000000000071e+00 1.401920000000000004e-10
4.599999999999999645e+00 1.359650000000000056e-10
4.620000000000000107e+00 1.318589999999999890e-10
4.639999999999999680e+00 1.278699999999999937e-10
4.660000000000000142e+00 1.239949999999999942e-10
4.679999999999999716e+00 1.202300000000000077e-10
4.700000000000000178e+00 1.165739999999999999e-10
4.719999999999999751e+00 1.130230000000000010e-10
4.740000000000000213e+00 1.095739999999999982e-10
4.769999999999999574e+00 1.062240000000000046e-10
4.790000000000000036e+00 1.029710000000000030e-10
4.809999999999999609e+00 9.981350000000000641e-11
4.830000000000000071e+00 9.674859999999999510e-11
4.849999999999999645e+00 9.377499999999999412e-11
4.870000000000000107e+00 9.089169999999999489e-11
4.889999999999999680e+00 8.809840000000000516e-11
4.910000000000000142e+00 8.539540000000000426e-11
4.929999999999999716e+00 8.278420000000000505e-11
4.950000000000000178e+00 8.026750000000000225e-11
4.969999999999999751e+00 7.784910000000000520e-11
4.990000000000000213e+00 7.553460000000000249e-11
5.009999999999999787e+00 7.333140000000000073e-11
5.030000000000000249e+00 7.124810000000000132e-11
5.049999999999999822e+00 6.929560000000000212e-11
5.070000000000000284e+00 6.748590000000000267e-11
5.089999999999999858e+00 6.583259999999999557e-11
5.110000000000000320e+00 6.435020000000000180e-11
5.129999999999999893e+00 6.305360000000000186e-11
5.150000000000000355e+00 6.195790000000000118e-11
5.169999999999999929e+00 6.107739999999999580e-11
5.190000000000000391e+00 6.042519999999999985e-11
5.209999999999999964e+00 6.001210000000000517e-11
5.230000000000000426e+00 5.984670000000000024e-11
5.250000000000000000e+00 5.993389999999999608e-11
5.269999999999999574e+00 6.027500000000000641e-11
5.290000000000000036e+00 6.086700000000000550e-11
5.309999999999999609e+00 6.170280000000000483e-11
5.330000000000000071e+00 6.277049999999999794e-11
5.349999999999999645e+00 6.405399999999999667e-11
5.370000000000000107e+00 6.553289999999999918e-11
5.389999999999999680e+00 6.718310000000000037e-11
5.410000000000000142e+00 6.897720000000000299e-11
5.429999999999999716e+00 7.088530000000000129e-11
5.450000000000000178e+00 7.287520000000000597e-11
5.469999999999999751e+00 7.491390000000000535e-11
5.490000000000000213e+00 7.696749999999999814e-11
5.509999999999999787e+00 7.900249999999999421e-11
5.530000000000000249e+00 8.098659999999999825e-11
5.549999999999999822e+00 8.288849999999999764e-11
5.570000000000000284e+00 8.467940000000000125e-11
5.589999999999999858e+00 8.633309999999999369e-11
5.610000000000000320e+00 8.782630000000000514e-11
5.629999999999999893e+00 8.913879999999999414e-11
5.650000000000000355e+00 9.025399999999999408e-11
5.669999999999999929e+00 9.115860000000000458e-11
5.690000000000000391e+00 9.184300000000000276e-11
5.709999999999999964e+00 9.230080000000000349e-11
5.730000000000000426e+00 9.252920000000000603e-11
5.750000000000000000e+00 9.252810000000000435e-11
5.769999999999999574e+00 9.230040000000000523e-11
5.790000000000000036e+00 9.185160000000000415e-11
5.809999999999999609e+00 9.118950000000000600e-11
5.830000000000000071e+00 9.032360000000000178e-11
5.849999999999999645e+00 8.926529999999999366e-11
5.870000000000000107e+00 8.802749999999999665e-11
5.889999999999999680e+00 8.662380000000000335e-11
5.910000000000000142e+00 8.506889999999999510e-11
5.929999999999999716e+00 8.337810000000000234e-11
5.950000000000000178e+00 8.156710000000000208e-11
5.969999999999999751e+00 7.965099999999999978e-11
5.990000000000000213e+00 7.764659999999999996e-11
6.009999999999999787e+00 7.556930000000000032e-11
6.030000000000000249e+00 7.343440000000000545e-11
6.049999999999999822e+00 7.125699999999999495e-11
6.070000000000000284e+00 6.905140000000000362e-11
6.089999999999999858e+00 6.683170000000000249e-11
6.110000000000000320e+00 6.461129999999999794e-11
6.129999999999999893e+00 6.240260000000000069e-11
6.150000000000000355e+00 6.021719999999999912e-11
6.169999999999999929e+00 5.806589999999999798e-11
6.190000000000000391e+00 5.595830000000000078e-11
6.209999999999999964e+00 5.390300000000000246e-11
6.230000000000000426e+00 5.190740000000000317e-11
6.250000000000000000e+00 4.997770000000000181e-11
6.269999999999999574e+00 4.811910000000000163e-11
6.290000000000000036e+00 4.633519999999999991e-11
6.309999999999999609e+00 4.462859999999999827e-11
6.330000000000000071e+00 4.300080000000000313e-11
6.349999999999999645e+00 4.145219999999999981e-11
6.370000000000000107e+00 3.998199999999999826e-11
6.389999999999999680e+00 3.858849999999999940e-11
6.410000000000000142e+00 3.726940000000000031e-11
6.429999999999999716e+00 3.602150000000000196e-11
6.450000000000000178e+00 3.484090000000000192e-11
6.469999999999999751e+00 3.372349999999999863e-11
6.490000000000000213e+00 3.266469999999999914e-11
6.509999999999999787e+00 3.165979999999999804e-11
6.530000000000000249e+00 3.070369999999999810e-11
6.549999999999999822e+00 2.979199999999999907e-11
6.570000000000000284e+00 2.891890000000000030e-11
6.589999999999999858e+00 2.808109999999999997e-11
6.610000000000000320e+00 2.727389999999999913e-11
6.629999999999999893e+00 2.649329999999999900e-11
6.650000000000000355e+00 2.573540000000000038e-11
6.669999999999999929e+00 2.499700000000000102e-11
6.690000000000000391e+00 2.427530000000000017e-11
6.709999999999999964e+00 2.356779999999999900e-11
6.730000000000000426e+00 2.287249999999999973e-11
6.750000000000000000e+00 2.218779999999999963e-11
6.769999999999999574e+00 2.151240000000000111e-11
6.790000000000000036e+00 2.084519999999999927e-11
6.809999999999999609e+00 2.018579999999999907e-11
6.830000000000000071e+00 1.953359999999999989e-11
6.849999999999999645e+00 1.888859999999999850e-11
6.870000000000000107e+00 1.825080000000000136e-11
6.889999999999999680e+00 1.762050000000000070e-11
6.910000000000000142e+00 1.699810000000000125e-11
6.929999999999999716e+00 1.638400000000000127e-11
6.950000000000000178e+00 1.577839999999999990e-11
6.969999999999999751e+00 1.518280000000000029e-11
6.990000000000000213e+00 1.459729999999999880e-11
7.009999999999999787e+00 1.402279999999999958e-11
7.030000000000000249e+00 1.345990000000000003e-11
7.049999999999999822e+00 1.290920000000000077e-11
7.070000000000000284e+00 1.237140000000000038e-11
7.089999999999999858e+00 1.184690000000000034e-11
7.110000000000000320e+00 1.133629999999999967e-11
7.129999999999999893e+00 1.083980000000000072e-11
7.150000000000000355e+00 1.035799999999999928e-11
7.169999999999999929e+00 9.890949999999999976e-12
7.190000000000000391e+00 9.438909999999999410e-12
7.209999999999999964e+00 9.001969999999999456e-12
7.230000000000000426e+00 8.580179999999999897e-12
7.259999999999999787e+00 8.173509999999999571e-12
7.280000000000000249e+00 7.781890000000000075e-12
7.299999999999999822e+00 7.405179999999999754e-12
7.320000000000000284e+00 7.043180000000000287e-12
7.339999999999999858e+00 6.695669999999999883e-12
7.360000000000000320e+00 6.362390000000000317e-12
7.379999999999999893e+00 6.043030000000000353e-12
7.400000000000000355e+00 5.737270000000000251e-12
7.419999999999999929e+00 5.444749999999999797e-12
7.440000000000000391e+00 5.165110000000000394e-12
7.459999999999999964e+00 4.897980000000000098e-12
7.480000000000000426e+00 4.642949999999999719e-12
7.500000000000000000e+00 4.399620000000000190e-12
7.519999999999999574e+00 4.167620000000000371e-12
7.540000000000000036e+00 3.946520000000000030e-12
7.559999999999999609e+00 3.734929999999999717e-12
7.580000000000000071e+00 3.534249999999999809e-12
7.599999999999999645e+00 3.343149999999999947e-12
7.620000000000000107e+00 3.161350000000000055e-12
7.639999999999999680e+00 2.988500000000000039e-12
7.660000000000000142e+00 2.824270000000000041e-12
7.679999999999999716e+00 2.668280000000000016e-12
7.700000000000000178e+00 2.520189999999999988e-12
7.719999999999999751e+00 2.379649999999999862e-12
7.740000000000000213e+00 2.246339999999999898e-12
7.759999999999999787e+00 2.119910000000000001e-12
7.780000000000000249e+00 2.000069999999999979e-12
7.799999999999999822e+00 1.886489999999999972e-12
7.820000000000000284e+00 1.778900000000000023e-12
7.839999999999999858e+00 1.677009999999999940e-12
7.860000000000000320e+00 1.580560000000000083e-12
7.879999999999999893e+00 1.489280000000000092e-12
7.900000000000000355e+00 1.402929999999999960e-12
7.919999999999999929e+00 1.321270000000000084e-12
7.940000000000000391e+00 1.244080000000000087e-12
7.959999999999999964e+00 1.171210000000000015e-12
7.980000000000000426e+00 1.102300000000000059e-12
8.000000000000000000e+00 1.037239999999999930e-12
8.019999999999999574e+00 9.758120000000000026e-13
8.039999999999999147e+00 9.178449999999999124e-13
8.060000000000000497e+00 8.631600000000000298e-13
8.080000000000000071e+00 8.115859999999999913e-13
8.099999999999999645e+00 7.629569999999999973e-13
8.119999999999999218e+00 7.171199999999999776e-13
8.140000000000000568e+00 6.739230000000000355e-13
8.160000000000000142e+00 6.332249999999999600e-13
8.179999999999999716e+00 5.948900000000000026e-13
8.199999999999999289e+00 5.587909999999999562e-13
8.220000000000000639e+00 5.248040000000000325e-13
8.240000000000000213e+00 4.928139999999999840e-13
8.259999999999999787e+00 4.627070000000000397e-13
8.279999999999999361e+00 4.343800000000000131e-13
8.300000000000000711e+00 4.077309999999999920e-13
8.320000000000000284e+00 3.826659999999999873e-13
8.339999999999999858e+00 3.590960000000000180e-13
8.359999999999999432e+00 3.369339999999999959e-13
8.380000000000000782e+00 3.161019999999999793e-13
8.400000000000000355e+00 2.965219999999999759e-13
8.419999999999999929e+00 2.781220000000000240e-13
8.439999999999999503e+00 2.608339999999999971e-13
8.460000000000000853e+00 2.445929999999999858e-13
8.480000000000000426e+00 2.293380000000000170e-13
8.500000000000000000e+00 2.150120000000000031e-13
