# log10(T) rate(cm^3/s)
# RecombRates
3.500000000000000000e+00 6.424349999999999783e-13
3.520000000000000018e+00 6.203100000000000094e-13
3.540000000000000036e+00 5.988780000000000256e-13
3.560000000000000053e+00 5.781199999999999640e-13
3.580000000000000071e+00 5.580150000000000209e-13
3.600000000000000089e+00 5.385459999999999753e-13
3.620000000000000107e+00 5.196939999999999664e-13
3.640000000000000124e+00 5.014389999999999599e-13
3.660000000000000142e+00 4.837669999999999520e-13
3.680000000000000160e+00 4.666580000000000094e-13
3.700000000000000178e+00 4.500970000000000056e-13
3.720000000000000195e+00 4.340670000000000224e-13
3.740000000000000213e+00 4.185540000000000056e-13
3.759999999999999787e+00 4.035420000000000086e-13
3.779999999999999805e+00 3.890160000000000056e-13
3.799999999999999822e+00 3.749610000000000216e-13
3.819999999999999840e+00 3.613649999999999955e-13
3.839999999999999858e+00 3.482140000000000246e-13
3.859999999999999876e+00 3.354929999999999822e-13
3.879999999999999893e+00 3.231920000000000026e-13
3.899999999999999911e+00 3.113240000000000172e-13
3.919999999999999929e+00 2.997829999999999758e-13
3.939999999999999947e+00 2.886589999999999820e-13
3.959999999999999964e+00 2.779169999999999759e-13
3.979999999999999982e+00 2.675379999999999956e-13
4.000000000000000000e+00 2.575050000000000221e-13
4.019999999999999574e+00 2.478050000000000230e-13
4.040000000000000036e+00 2.384309999999999965e-13
4.059999999999999609e+00 2.293709999999999826e-13
4.080000000000000071e+00 2.206190000000000013e-13
4.099999999999999645e+00 2.121670000000000036e-13
4.120000000000000107e+00 2.040049999999999976e-13
4.139999999999999680e+00 1.961260000000000066e-13
4.160000000000000142e+00 1.885230000000000036e-13
4.179999999999999716e+00 1.811859999999999966e-13
4.200000000000000178e+00 1.741070000000000123e-13
4.219999999999999751e+00 1.672789999999999984e-13
4.240000000000000213e+00 1.606919999999999882e-13
4.259999999999999787e+00 1.543400000000000017e-13
4.280000000000000249e+00 1.482139999999999933e-13
4.299999999999999822e+00 1.423080000000000082e-13
4.320000000000000284e+00 1.366130000000000006e-13
4.339999999999999858e+00 1.311229999999999907e-13
4.360000000000000320e+00 1.258319999999999984e-13
4.379999999999999893e+00 1.207329999999999966e-13
4.400000000000000355e+00 1.158200000000000053e-13
4.419999999999999929e+00 1.110890000000000000e-13
4.440000000000000391e+00 1.065349999999999974e-13
4.459999999999999964e+00 1.021539999999999982e-13
4.480000000000000426e+00 9.794790000000000111e-14
4.500000000000000000e+00 9.391759999999999555e-14
4.519999999999999574e+00 9.007079999999999623e-14
4.540000000000000036e+00 8.642200000000000526e-14
4.559999999999999609e+00 8.299520000000000566e-14
4.580000000000000071e+00 7.982740000000000022e-14
4.599999999999999645e+00 7.697289999999999456e-14
4.620000000000000107e+00 7.450720000000000184e-14
4.639999999999999680e+00 7.253220000000000269e-14
4.660000000000000142e+00 7.118050000000000401e-14
4.679999999999999716e+00 7.061969999999999695e-14
4.700000000000000178e+00 7.105519999999999545e-14
4.719999999999999751e+00 7.273220000000000436e-14
4.740000000000000213e+00 7.593469999999999753e-14
4.769999999999999574e+00 8.098309999999999649e-14
4.790000000000000036e+00 8.822829999999999676e-14
4.809999999999999609e+00 9.804409999999999821e-14
4.830000000000000071e+00 1.108160000000000021e-13
4.849999999999999645e+00 1.269280000000000020e-13
4.870000000000000107e+00 1.467459999999999939e-13
4.889999999999999680e+00 1.706070000000000020e-13
4.910000000000000142e+00 1.987510000000000081e-13
4.929999999999999716e+00 2.314880000000000129e-13
4.950000000000000178e+00 2.689139999999999990e-13
4.969999999999999751e+00 3.110910000000000120e-13
4.990000000000000213e+00 3.579819999999999987e-13
5.009999999999999787e+00 4.094420000000000137e-13
5.030000000000000249e+00 4.652239999999999976e-13
5.049999999999999822e+00 5.249749999999999921e-13
5.070000000000000284e+00 5.882519999999999859e-13
5.089999999999999858e+00 6.545179999999999784e-13
5.110000000000000320e+00 7.231679999999999938e-13
5.129999999999999893e+00 7.935319999999999957e-13
5.150000000000000355e+00 8.649020000000000238e-13
5.169999999999999929e+00 9.365349999999999065e-13
5.190000000000000391e+00 1.007689999999999920e-12
5.209999999999999964e+00 1.077620000000000007e-12
5.230000000000000426e+00 1.145600000000000086e-12
5.250000000000000000e+00 1.210970000000000039e-12
5.269999999999999574e+00 1.273080000000000064e-12
5.290000000000000036e+00 1.331370000000000011e-12
5.309999999999999609e+00 1.385319999999999998e-12
5.330000000000000071e+00 1.434520000000000031e-12
5.349999999999999645e+00 1.478610000000000098e-12
5.370000000000000107e+00 1.517320000000000041e-12
5.389999999999999680e+00 1.550440000000000005e-12
5.410000000000000142e+00 1.577879999999999937e-12
5.429999999999999716e+00 1.599579999999999935e-12
5.450000000000000178e+00 1.615569999999999951e-12
5.469999999999999751e+00 1.625940000000000037e-12
5.490000000000000213e+00 1.630830000000000029e-12
5.509999999999999787e+00 1.630429999999999950e-12
5.530000000000000249e+00 1.624989999999999925e-12
5.549999999999999822e+00 1.614779999999999911e-12
5.570000000000000284e+00 1.600089999999999900e-12
5.589999999999999858e+00 1.581260000000000070e-12
5.610000000000000320e+00 1.558609999999999959e-12
5.629999999999999893e+00 1.532490000000000067e-12
5.650000000000000355e+00 1.503269999999999914e-12
5.669999999999999929e+00 1.471279999999999967e-12
5.690000000000000391e+00 1.436869999999999915e-12
5.709999999999999964e+00 1.400379999999999936e-12
5.730000000000000426e+00 1.362150000000000007e-12
5.750000000000000000e+00 1.322469999999999917e-12
5.769999999999999574e+00 1.281650000000000097e-12
5.790000000000000036e+00 1.239960000000000100e-12
5.809999999999999609e+00 1.197680000000000002e-12
5.830000000000000071e+00 1.155029999999999977e-12
5.849999999999999645e+00 1.112229999999999997e-12
5.870000000000000107e+00 1.069500000000000037e-12
5.889999999999999680e+00 1.027020000000000000e-12
5.910000000000000142e+00 9.849429999999999563e-13
5.929999999999999716e+00 9.434169999999999170e-13
5.950000000000000178e+00 9.025729999999999751e-13
5.969999999999999751e+00 8.625229999999999589e-13
5.990000000000000213e+00 8.233600000000000379e-13
6.009999999999999787e+00 7.851650000000000173e-13
6.030000000000000249e+00 7.480070000000000458e-13
6.049999999999999822e+00 7.119379999999999498e-13
6.070000000000000284e+00 6.770010000000000150e-13
6.089999999999999858e+00 6.432269999999999612e-13
6.110000000000000320e+00 6.106390000000000398e-13
6.129999999999999893e+00 5.792499999999999804e-13
6.150000000000000355e+00 5.490650000000000439e-13
6.169999999999999929e+00 5.200840000000000284e-13
6.190000000000000391e+00 4.922989999999999605e-13
6.209999999999999964e+00 4.656970000000000098e-13
6.230000000000000426e+00 4.402599999999999840e-13
6.250000000000000000e+00 4.159680000000000003e-13
6.269999999999999574e+00 3.927960000000000158e-13
6.290000000000000036e+00 3.707169999999999945e-13
6.309999999999999609e+00 3.497000000000000144e-13
6.330000000000000071e+00 3.297140000000000025e-13
6.349999999999999645e+00 3.107279999999999862e-13
6.370000000000000107e+00 2.927059999999999849e-13
6.389999999999999680e+00 2.756140000000000108e-13
6.410000000000000142e+00 2.594170000000000042e-13
6.429999999999999716e+00 2.440800000000000061e-13
6.450000000000000178e+00 2.295669999999999850e-13
6.469999999999999751e+00 2.158430000000000073e-13
6.490000000000000213e+00 2.028750000000000064e-13
6.509999999999999787e+00 1.906279999999999981e-13
6.530000000000000249e+00 1.790689999999999916e-13
6.549999999999999822e+00 1.681649999999999958e-13
6.570000000000000284e+00 1.578860000000000100e-13
6.589999999999999858e+00 1.481989999999999928e-13
6.610000000000000320e+00 1.390749999999999905e-13
6.629999999999999893e+00 1.304859999999999955e-13
6.650000000000000355e+00 1.224049999999999969e-13
6.669999999999999929e+00 1.148029999999999905e-13
6.690000000000000391e+00 1.076560000000000060e-13
6.709999999999999964e+00 1.009390000000000003e-13
6.730000000000000426e+00 9.462890000000000536e-14
6.750000000000000000e+00 8.870280000000000398e-14
6.769999999999999574e+00 8.313929999999999946e-14
6.790000000000000036e+00 7.791800000000000433e-14
6.809999999999999609e+00 7.301959999999999716e-14
6.830000000000000071e+00 6.842549999999999455e-14
6.849999999999999645e+00 6.411789999999999531e-14
6.870000000000000107e+00 6.008019999999999678e-14
6.889999999999999680e+00 5.629669999999999831e-14
6.910000000000000142e+00 5.275159999999999835e-14
6.929999999999999716e+00 4.943180000000000148e-14
6.950000000000000178e+00 4.632339999999999853e-14
6.969999999999999751e+00 4.341369999999999782e-14
6.990000000000000213e+00 4.069060000000000056e-14
7.009999999999999787e+00 3.814280000000000283e-14
7.030000000000000249e+00 3.575949999999999899e-14
7.049999999999999822e+00 3.353060000000000255e-14
7.070000000000000284e+00 3.144670000000000196e-14
7.089999999999999858e+00 2.949860000000000014e-14
7.110000000000000320e+00 2.767799999999999892e-14
7.129999999999999893e+00 2.597689999999999973e-14
7.150000000000000355e+00 2.438779999999999921e-14
7.169999999999999929e+00 2.290360000000000085e-14
7.190000000000000391e+00 2.151770000000000016e-14
7.209999999999999964e+00 2.022400000000000046e-14
7.230000000000000426e+00 1.901649999999999967e-14
7.259999999999999787e+00 1.788959999999999945e-14
7.280000000000000249e+00 1.683839999999999846e-14
7.299999999999999822e+00 1.585790000000000077e-14
7.320000000000000284e+00 1.494359999999999930e-14
7.339999999999999858e+00 1.409119999999999989e-14
7.360000000000000320e+00 1.329670000000000009e-14
7.379999999999999893e+00 1.255629999999999934e-14
7.400000000000000355e+00 1.186660000000000078e-14
7.419999999999999929e+00 1.122419999999999965e-14
7.440000000000000391e+00 1.062600000000000030e-14
7.459999999999999964e+00 1.006920000000000040e-14
7.480000000000000426e+00 9.550950000000000314e-15
7.500000000000000000e+00 9.068820000000000504e-15
7.519999999999999574e+00 8.620399999999999422e-15
7.540000000000000036e+00 8.203449999999999618e-15
7.559999999999999609e+00 7.815880000000000304e-15
7.580000000000000071e+00 7.455740000000000727e-15
7.599999999999999645e+00 7.121210000000000397e-15
7.620000000000000107e+00 6.810580000000000318e-15
7.639999999999999680e+00 6.522230000000000277e-15
7.660000000000000142e+00 6.254680000000000100e-15
7.679999999999999716e+00 6.006519999999999633e-15
7.700000000000000178e+00 5.776459999999999993e-15
7.719999999999999751e+00 5.563240000000000051e-15
7.740000000000000213e+00 5.365750000000000070e-15
7.759999999999999787e+00 5.182890000000000093e-15
7.780000000000000249e+00 5.013679999999999854e-15
7.799999999999999822e+00 4.857169999999999998e-15
7.820000000000000284e+00 4.712499999999999957e-15
7.839999999999999858e+00 4.578830000000000292e-15
7.860000000000000320e+00 4.455420000000000126e-15
7.879999999999999893e+00 4.341539999999999940e-15
7.900000000000000355e+00 4.236530000000000232e-15
7.919999999999999929e+00 4.139760000000000042e-15
7.940000000000000391e+00 4.050660000000000231e-15
7.959999999999999964e+00 3.968679999999999636e-15
7.980000000000000426e+00 3.893310000000000149e-15
8.000000000000000000e+00 3.824069999999999836e-15
8.019999999999999574e+00 3.760540000000000163e-15
8.039999999999999147e+00 3.702279999999999883e-15
8.060000000000000497e+00 3.648920000000000136e-15
8.080000000000000071e+00 3.600100000000000262e-15
8.099999999999999645e+00 3.555470000000000166e-15
8.119999999999999218e+00 3.514729999999999823e-15
8.140000000000000568e+00 3.477590000000000170e-15
8.160000000000000142e+00 3.443769999999999948e-15
8.179999999999999716e+00 3.413009999999999819e-15
8.199999999999999289e+00 3.385089999999999949e-15
8.220000000000000639e+00 3.359770000000000161e-15
8.240000000000000213e+00 3.336850000000000175e-15
8.259999999999999787e+00 3.316150000000000055e-15
8.279999999999999361e+00 3.297469999999999918e-15
8.300000000000000711e+00 3.280659999999999946e-15
8.320000000000000284e+00 3.265549999999999983e-15
8.339999999999999858e+00 3.252010000000000161e-15
8.359999999999999432e+00 3.239889999999999877e-15
8.380000000000000782e+00 3.229080000000000003e-15
8.400000000000000355e+00 3.219449999999999884e-15
8.419999999999999929e+00 3.210900000000000169e-15
8.439999999999999503e+00 3.203320000000000153e-15
8.460000000000000853e+00 3.196619999999999866e-15
8.480000000000000426e+00 3.190719999999999909e-15
8.500000000000000000e+00 3.185529999999999917e-15
