# log10(T) rate(cm^3/s)
# RecombRates
3.500000000000000000e+00 9.200150000000000940e-13
3.520000000000000018e+00 8.914229999999999670e-13
3.540000000000000036e+00 8.636679999999999505e-13
3.560000000000000053e+00 8.367260000000000235e-13
3.580000000000000071e+00 8.105750000000000070e-13
3.600000000000000089e+00 7.851930000000000249e-13
3.620000000000000107e+00 7.605589999999999705e-13
3.640000000000000124e+00 7.366499999999999964e-13
3.660000000000000142e+00 7.134470000000000396e-13
3.680000000000000160e+00 6.909310000000000374e-13
3.700000000000000178e+00 6.690809999999999841e-13
3.720000000000000195e+00 6.478780000000000188e-13
3.740000000000000213e+00 6.273059999999999930e-13
3.759999999999999787e+00 6.073449999999999733e-13
3.779999999999999805e+00 5.879780000000000418e-13
3.799999999999999822e+00 5.691900000000000213e-13
3.819999999999999840e+00 5.509619999999999499e-13
3.839999999999999858e+00 5.332809999999999973e-13
3.859999999999999876e+00 5.161289999999999710e-13
3.879999999999999893e+00 4.994919999999999683e-13
3.899999999999999911e+00 4.833550000000000139e-13
3.919999999999999929e+00 4.677040000000000032e-13
3.939999999999999947e+00 4.525249999999999827e-13
3.959999999999999964e+00 4.378050000000000212e-13
3.979999999999999982e+00 4.235300000000000139e-13
4.000000000000000000e+00 4.096880000000000008e-13
4.019999999999999574e+00 3.962670000000000219e-13
4.040000000000000036e+00 3.832539999999999944e-13
4.059999999999999609e+00 3.706370000000000089e-13
4.080000000000000071e+00 3.584059999999999977e-13
4.099999999999999645e+00 3.465490000000000009e-13
4.120000000000000107e+00 3.350549999999999794e-13
4.139999999999999680e+00 3.239140000000000171e-13
4.160000000000000142e+00 3.131159999999999958e-13
4.179999999999999716e+00 3.026509999999999995e-13
4.200000000000000178e+00 2.925079999999999891e-13
4.219999999999999751e+00 2.826800000000000132e-13
4.240000000000000213e+00 2.731559999999999823e-13
4.259999999999999787e+00 2.639280000000000241e-13
4.280000000000000249e+00 2.549869999999999918e-13
4.299999999999999822e+00 2.463250000000000132e-13
4.320000000000000284e+00 2.379340000000000139e-13
4.339999999999999858e+00 2.298049999999999987e-13
4.360000000000000320e+00 2.219319999999999877e-13
4.379999999999999893e+00 2.143060000000000110e-13
4.400000000000000355e+00 2.069199999999999907e-13
4.419999999999999929e+00 1.997679999999999976e-13
4.440000000000000391e+00 1.928430000000000044e-13
4.459999999999999964e+00 1.861370000000000125e-13
4.480000000000000426e+00 1.796439999999999916e-13
4.500000000000000000e+00 1.733580000000000122e-13
4.519999999999999574e+00 1.672729999999999932e-13
4.540000000000000036e+00 1.613830000000000051e-13
4.559999999999999609e+00 1.556819999999999924e-13
4.580000000000000071e+00 1.501649999999999968e-13
4.599999999999999645e+00 1.448249999999999913e-13
4.620000000000000107e+00 1.396590000000000111e-13
4.639999999999999680e+00 1.346600000000000038e-13
4.660000000000000142e+00 1.298230000000000114e-13
4.679999999999999716e+00 1.251439999999999967e-13
4.700000000000000178e+00 1.206180000000000016e-13
4.719999999999999751e+00 1.162399999999999924e-13
4.740000000000000213e+00 1.120059999999999950e-13
4.769999999999999574e+00 1.079119999999999975e-13
4.790000000000000036e+00 1.039530000000000040e-13
4.809999999999999609e+00 1.001250000000000025e-13
4.830000000000000071e+00 9.642480000000000127e-14
4.849999999999999645e+00 9.284749999999999893e-14
4.870000000000000107e+00 8.938990000000000365e-14
4.889999999999999680e+00 8.604829999999999999e-14
4.910000000000000142e+00 8.281899999999999779e-14
4.929999999999999716e+00 7.969869999999999795e-14
4.950000000000000178e+00 7.668410000000000138e-14
4.969999999999999751e+00 7.377189999999999638e-14
4.990000000000000213e+00 7.095879999999999649e-14
5.009999999999999787e+00 6.824189999999999369e-14
5.030000000000000249e+00 6.561819999999999802e-14
5.049999999999999822e+00 6.308489999999999608e-14
5.070000000000000284e+00 6.063899999999999789e-14
5.089999999999999858e+00 5.827799999999999916e-14
5.110000000000000320e+00 5.599899999999999822e-14
5.129999999999999893e+00 5.379959999999999802e-14
5.150000000000000355e+00 5.167730000000000059e-14
5.169999999999999929e+00 4.962970000000000258e-14
5.190000000000000391e+00 4.765440000000000064e-14
5.209999999999999964e+00 4.574909999999999865e-14
5.230000000000000426e+00 4.391160000000000143e-14
5.250000000000000000e+00 4.213990000000000303e-14
5.269999999999999574e+00 4.043170000000000103e-14
5.290000000000000036e+00 3.878500000000000210e-14
5.309999999999999609e+00 3.719800000000000215e-14
5.330000000000000071e+00 3.566860000000000061e-14
5.349999999999999645e+00 3.419520000000000155e-14
5.370000000000000107e+00 3.277569999999999811e-14
5.389999999999999680e+00 3.140850000000000067e-14
5.410000000000000142e+00 3.009200000000000067e-14
5.429999999999999716e+00 2.882450000000000128e-14
5.450000000000000178e+00 2.760429999999999932e-14
5.469999999999999751e+00 2.643000000000000072e-14
5.490000000000000213e+00 2.530000000000000011e-14
5.509999999999999787e+00 2.421300000000000118e-14
5.530000000000000249e+00 2.316739999999999855e-14
5.549999999999999822e+00 2.216189999999999907e-14
5.570000000000000284e+00 2.119520000000000015e-14
5.589999999999999858e+00 2.026599999999999917e-14
5.610000000000000320e+00 1.937310000000000077e-14
5.629999999999999893e+00 1.851519999999999920e-14
5.650000000000000355e+00 1.769120000000000001e-14
5.669999999999999929e+00 1.689999999999999930e-14
5.690000000000000391e+00 1.614039999999999855e-14
5.709999999999999964e+00 1.541130000000000018e-14
5.730000000000000426e+00 1.471179999999999897e-14
5.750000000000000000e+00 1.404080000000000049e-14
5.769999999999999574e+00 1.339739999999999954e-14
5.790000000000000036e+00 1.278059999999999946e-14
5.809999999999999609e+00 1.218949999999999977e-14
5.830000000000000071e+00 1.162310000000000067e-14
5.849999999999999645e+00 1.108070000000000037e-14
5.870000000000000107e+00 1.056149999999999935e-14
5.889999999999999680e+00 1.006449999999999936e-14
5.910000000000000142e+00 9.589109999999999340e-15
5.929999999999999716e+00 9.134449999999999955e-15
5.950000000000000178e+00 8.699840000000000571e-15
5.969999999999999751e+00 8.284550000000000088e-15
5.990000000000000213e+00 7.887889999999999674e-15
6.009999999999999787e+00 7.509190000000000048e-15
6.030000000000000249e+00 7.147819999999999463e-15
6.049999999999999822e+00 6.803150000000000116e-15
6.070000000000000284e+00 6.474569999999999814e-15
6.089999999999999858e+00 6.161489999999999862e-15
6.110000000000000320e+00 5.863350000000000109e-15
6.129999999999999893e+00 5.579589999999999616e-15
6.150000000000000355e+00 5.309689999999999707e-15
6.169999999999999929e+00 5.053120000000000352e-15
6.190000000000000391e+00 4.809399999999999619e-15
6.209999999999999964e+00 4.578029999999999963e-15
6.230000000000000426e+00 4.358549999999999797e-15
6.250000000000000000e+00 4.150509999999999674e-15
6.269999999999999574e+00 3.953469999999999927e-15
6.290000000000000036e+00 3.767009999999999655e-15
6.309999999999999609e+00 3.590710000000000320e-15
6.330000000000000071e+00 3.424190000000000131e-15
6.349999999999999645e+00 3.267059999999999883e-15
6.370000000000000107e+00 3.118949999999999928e-15
6.389999999999999680e+00 2.979489999999999827e-15
6.410000000000000142e+00 2.848360000000000002e-15
6.429999999999999716e+00 2.725200000000000185e-15
6.450000000000000178e+00 2.609700000000000182e-15
6.469999999999999751e+00 2.501550000000000190e-15
6.490000000000000213e+00 2.400429999999999840e-15
6.509999999999999787e+00 2.306070000000000019e-15
6.530000000000000249e+00 2.218180000000000084e-15
6.549999999999999822e+00 2.136479999999999959e-15
6.570000000000000284e+00 2.060709999999999913e-15
6.589999999999999858e+00 1.990619999999999991e-15
6.610000000000000320e+00 1.925970000000000015e-15
6.629999999999999893e+00 1.866510000000000031e-15
6.650000000000000355e+00 1.812010000000000033e-15
6.669999999999999929e+00 1.762269999999999939e-15
6.690000000000000391e+00 1.717049999999999965e-15
6.709999999999999964e+00 1.676160000000000005e-15
6.730000000000000426e+00 1.639399999999999976e-15
6.750000000000000000e+00 1.606579999999999967e-15
6.769999999999999574e+00 1.577510000000000069e-15
6.790000000000000036e+00 1.552009999999999950e-15
6.809999999999999609e+00 1.529910000000000044e-15
6.830000000000000071e+00 1.511049999999999971e-15
6.849999999999999645e+00 1.495269999999999939e-15
6.870000000000000107e+00 1.482409999999999963e-15
6.889999999999999680e+00 1.472320000000000030e-15
6.910000000000000142e+00 1.464870000000000076e-15
6.929999999999999716e+00 1.459899999999999919e-15
6.950000000000000178e+00 1.457310000000000009e-15
6.969999999999999751e+00 1.456939999999999965e-15
6.990000000000000213e+00 1.458680000000000068e-15
7.009999999999999787e+00 1.462420000000000007e-15
7.030000000000000249e+00 1.468029999999999915e-15
7.049999999999999822e+00 1.475420000000000021e-15
7.070000000000000284e+00 1.484470000000000040e-15
7.089999999999999858e+00 1.495080000000000029e-15
7.110000000000000320e+00 1.507160000000000020e-15
7.129999999999999893e+00 1.520610000000000071e-15
7.150000000000000355e+00 1.535349999999999991e-15
7.169999999999999929e+00 1.551280000000000035e-15
7.190000000000000391e+00 1.568320000000000012e-15
7.209999999999999964e+00 1.586399999999999903e-15
7.230000000000000426e+00 1.605429999999999938e-15
7.259999999999999787e+00 1.625350000000000073e-15
7.280000000000000249e+00 1.646090000000000090e-15
7.299999999999999822e+00 1.667560000000000023e-15
7.320000000000000284e+00 1.689729999999999947e-15
7.339999999999999858e+00 1.712510000000000093e-15
7.360000000000000320e+00 1.735859999999999969e-15
7.379999999999999893e+00 1.759709999999999953e-15
7.400000000000000355e+00 1.784009999999999973e-15
7.419999999999999929e+00 1.808710000000000157e-15
7.440000000000000391e+00 1.833760000000000042e-15
7.459999999999999964e+00 1.859109999999999951e-15
7.480000000000000426e+00 1.884719999999999986e-15
7.500000000000000000e+00 1.910540000000000078e-15
7.519999999999999574e+00 1.936529999999999935e-15
7.540000000000000036e+00 1.962659999999999829e-15
7.559999999999999609e+00 1.988880000000000085e-15
7.580000000000000071e+00 2.015160000000000189e-15
7.599999999999999645e+00 2.041470000000000019e-15
7.620000000000000107e+00 2.067770000000000071e-15
7.639999999999999680e+00 2.094040000000000003e-15
7.660000000000000142e+00 2.120239999999999916e-15
7.679999999999999716e+00 2.146340000000000084e-15
7.700000000000000178e+00 2.172320000000000163e-15
7.719999999999999751e+00 2.198159999999999810e-15
7.740000000000000213e+00 2.223830000000000087e-15
7.759999999999999787e+00 2.249309999999999862e-15
7.780000000000000249e+00 2.274579999999999975e-15
7.799999999999999822e+00 2.299620000000000082e-15
7.820000000000000284e+00 2.324400000000000062e-15
7.839999999999999858e+00 2.348919999999999917e-15
7.860000000000000320e+00 2.373149999999999918e-15
7.879999999999999893e+00 2.397079999999999894e-15
7.900000000000000355e+00 2.420700000000000069e-15
7.919999999999999929e+00 2.443990000000000099e-15
7.940000000000000391e+00 2.466939999999999811e-15
7.959999999999999964e+00 2.489530000000000046e-15
7.980000000000000426e+00 2.511760000000000015e-15
8.000000000000000000e+00 2.533619999999999940e-15
8.019999999999999574e+00 2.555089999999999873e-15
8.039999999999999147e+00 2.576179999999999985e-15
8.060000000000000497e+00 2.596860000000000155e-15
8.080000000000000071e+00 2.617129999999999989e-15
8.099999999999999645e+00 2.636989999999999882e-15
8.119999999999999218e+00 2.656430000000000056e-15
8.140000000000000568e+00 2.675439999999999945e-15
8.160000000000000142e+00 2.694030000000000115e-15
8.179999999999999716e+00 2.712179999999999828e-15
8.199999999999999289e+00 2.729889999999999873e-15
8.220000000000000639e+00 2.747159999999999856e-15
8.240000000000000213e+00 2.763979999999999999e-15
8.259999999999999787e+00 2.780360000000000080e-15
8.279999999999999361e+00 2.796289999999999927e-15
8.300000000000000711e+00 2.811769999999999934e-15
8.320000000000000284e+00 2.826800000000000101e-15
8.339999999999999858e+00 2.841380000000000034e-15
8.359999999999999432e+00 2.855499999999999956e-15
8.380000000000000782e+00 2.869179999999999815e-15
8.400000000000000355e+00 2.882400000000000058e-15
8.419999999999999929e+00 2.895170000000000066e-15
8.439999999999999503e+00 2.907489999999999840e-15
8.460000000000000853e+00 2.919360000000000169e-15
8.480000000000000426e+00 2.930790000000000041e-15
8.500000000000000000e+00 2.941770000000000074e-15
