# log10(T) rate(cm^3/s)
# RecombRates
3.500000000000000000e+00 7.744839999999999541e-12
3.520000000000000018e+00 7.496699999999999752e-12
3.540000000000000036e+00 7.255939999999999877e-12
3.560000000000000053e+00 7.022349999999999860e-12
3.580000000000000071e+00 6.795719999999999643e-12
3.600000000000000089e+00 6.575850000000000096e-12
3.620000000000000107e+00 6.362559999999999902e-12
3.640000000000000124e+00 6.155660000000000046e-12
3.660000000000000142e+00 5.954970000000000020e-12
3.680000000000000160e+00 5.760320000000000238e-12
3.700000000000000178e+00 5.571520000000000073e-12
3.720000000000000195e+00 5.388430000000000295e-12
3.740000000000000213e+00 5.210870000000000393e-12
3.759999999999999787e+00 5.038700000000000330e-12
3.779999999999999805e+00 4.871749999999999714e-12
3.799999999999999822e+00 4.709880000000000122e-12
3.819999999999999840e+00 4.552929999999999665e-12
3.839999999999999858e+00 4.400790000000000275e-12
3.859999999999999876e+00 4.253300000000000062e-12
3.879999999999999893e+00 4.110340000000000033e-12
3.899999999999999911e+00 3.971760000000000032e-12
3.919999999999999929e+00 3.837459999999999685e-12
3.939999999999999947e+00 3.707299999999999763e-12
3.959999999999999964e+00 3.581170000000000178e-12
3.979999999999999982e+00 3.458960000000000036e-12
4.000000000000000000e+00 3.340539999999999819e-12
4.019999999999999574e+00 3.225809999999999964e-12
4.040000000000000036e+00 3.114659999999999978e-12
4.059999999999999609e+00 3.006989999999999893e-12
4.080000000000000071e+00 2.902709999999999856e-12
4.099999999999999645e+00 2.801710000000000186e-12
4.120000000000000107e+00 2.703890000000000104e-12
4.139999999999999680e+00 2.609169999999999877e-12
4.160000000000000142e+00 2.517449999999999941e-12
4.179999999999999716e+00 2.428650000000000158e-12
4.200000000000000178e+00 2.342679999999999869e-12
4.219999999999999751e+00 2.259460000000000149e-12
4.240000000000000213e+00 2.178920000000000171e-12
4.259999999999999787e+00 2.100959999999999966e-12
4.280000000000000249e+00 2.025479999999999968e-12
4.299999999999999822e+00 1.952480000000000178e-12
4.320000000000000284e+00 1.881869999999999937e-12
4.339999999999999858e+00 1.813559999999999999e-12
4.360000000000000320e+00 1.747479999999999941e-12
4.379999999999999893e+00 1.683550000000000031e-12
4.400000000000000355e+00 1.621729999999999997e-12
4.419999999999999929e+00 1.561959999999999940e-12
4.440000000000000391e+00 1.504179999999999958e-12
4.459999999999999964e+00 1.448359999999999899e-12
4.480000000000000426e+00 1.394470000000000015e-12
4.500000000000000000e+00 1.342490000000000068e-12
4.519999999999999574e+00 1.292429999999999977e-12
4.540000000000000036e+00 1.244320000000000094e-12
4.559999999999999609e+00 1.198239999999999951e-12
4.580000000000000071e+00 1.154320000000000074e-12
4.599999999999999645e+00 1.112730000000000046e-12
4.620000000000000107e+00 1.073729999999999909e-12
4.639999999999999680e+00 1.037669999999999960e-12
4.660000000000000142e+00 1.004959999999999991e-12
4.679999999999999716e+00 9.761480000000000932e-13
4.700000000000000178e+00 9.518510000000000000e-13
4.719999999999999751e+00 9.327969999999999077e-13
4.740000000000000213e+00 9.197960000000000926e-13
4.769999999999999574e+00 9.137360000000000155e-13
4.790000000000000036e+00 9.155520000000000150e-13
4.809999999999999609e+00 9.262109999999999194e-13
4.830000000000000071e+00 9.466760000000000750e-13
4.849999999999999645e+00 9.778769999999999539e-13
4.870000000000000107e+00 1.020680000000000049e-12
4.889999999999999680e+00 1.075780000000000087e-12
4.910000000000000142e+00 1.143949999999999988e-12
4.929999999999999716e+00 1.225619999999999982e-12
4.950000000000000178e+00 1.321069999999999944e-12
4.969999999999999751e+00 1.430409999999999960e-12
4.990000000000000213e+00 1.553549999999999979e-12
5.009999999999999787e+00 1.690200000000000008e-12
5.030000000000000249e+00 1.839850000000000082e-12
5.049999999999999822e+00 2.001809999999999929e-12
5.070000000000000284e+00 2.175169999999999909e-12
5.089999999999999858e+00 2.358880000000000143e-12
5.110000000000000320e+00 2.551679999999999887e-12
5.129999999999999893e+00 2.752210000000000043e-12
5.150000000000000355e+00 2.958950000000000029e-12
5.169999999999999929e+00 3.170289999999999813e-12
5.190000000000000391e+00 3.384550000000000154e-12
5.209999999999999964e+00 3.600000000000000008e-12
5.230000000000000426e+00 3.814850000000000047e-12
5.250000000000000000e+00 4.027339999999999680e-12
5.269999999999999574e+00 4.235639999999999913e-12
5.290000000000000036e+00 4.438159999999999741e-12
5.309999999999999609e+00 4.633200000000000089e-12
5.330000000000000071e+00 4.819190000000000188e-12
5.349999999999999645e+00 4.994689999999999996e-12
5.370000000000000107e+00 5.158380000000000079e-12
5.389999999999999680e+00 5.309049999999999880e-12
5.410000000000000142e+00 5.445680000000000278e-12
5.429999999999999716e+00 5.567379999999999649e-12
5.450000000000000178e+00 5.673450000000000226e-12
5.469999999999999751e+00 5.763369999999999907e-12
5.490000000000000213e+00 5.836759999999999860e-12
5.509999999999999787e+00 5.893430000000000264e-12
5.530000000000000249e+00 5.933380000000000311e-12
5.549999999999999822e+00 5.956719999999999684e-12
5.570000000000000284e+00 5.963740000000000193e-12
5.589999999999999858e+00 5.954860000000000336e-12
5.610000000000000320e+00 5.930630000000000146e-12
5.629999999999999893e+00 5.891700000000000028e-12
5.650000000000000355e+00 5.838819999999999954e-12
5.669999999999999929e+00 5.772809999999999915e-12
5.690000000000000391e+00 5.694559999999999921e-12
5.709999999999999964e+00 5.605019999999999880e-12
5.730000000000000426e+00 5.505159999999999940e-12
5.750000000000000000e+00 5.395979999999999793e-12
5.769999999999999574e+00 5.278479999999999941e-12
5.790000000000000036e+00 5.153670000000000193e-12
5.809999999999999609e+00 5.022519999999999888e-12
5.830000000000000071e+00 4.886010000000000099e-12
5.849999999999999645e+00 4.745069999999999692e-12
5.870000000000000107e+00 4.600440000000000136e-12
5.889999999999999680e+00 4.453240000000000117e-12
5.910000000000000142e+00 4.304150000000000396e-12
5.929999999999999716e+00 4.153920000000000136e-12
5.950000000000000178e+00 4.003259999999999645e-12
5.969999999999999751e+00 3.852820000000000137e-12
5.990000000000000213e+00 3.703199999999999811e-12
6.009999999999999787e+00 3.554909999999999844e-12
6.030000000000000249e+00 3.408460000000000201e-12
6.049999999999999822e+00 3.264260000000000068e-12
6.070000000000000284e+00 3.122680000000000180e-12
6.089999999999999858e+00 2.984060000000000111e-12
6.110000000000000320e+00 2.848679999999999934e-12
6.129999999999999893e+00 2.716769999999999944e-12
6.150000000000000355e+00 2.588530000000000078e-12
6.169999999999999929e+00 2.464110000000000090e-12
6.190000000000000391e+00 2.343650000000000015e-12
6.209999999999999964e+00 2.227240000000000110e-12
6.230000000000000426e+00 2.114920000000000040e-12
6.250000000000000000e+00 2.006739999999999990e-12
6.269999999999999574e+00 1.902710000000000078e-12
6.290000000000000036e+00 1.802810000000000070e-12
6.309999999999999609e+00 1.707019999999999930e-12
6.330000000000000071e+00 1.615279999999999959e-12
6.349999999999999645e+00 1.527530000000000055e-12
6.370000000000000107e+00 1.443709999999999914e-12
6.389999999999999680e+00 1.363730000000000087e-12
6.410000000000000142e+00 1.287480000000000084e-12
6.429999999999999716e+00 1.214870000000000053e-12
6.450000000000000178e+00 1.145800000000000025e-12
6.469999999999999751e+00 1.080140000000000081e-12
6.490000000000000213e+00 1.017799999999999965e-12
6.509999999999999787e+00 9.586330000000000411e-13
6.530000000000000249e+00 9.025379999999999656e-13
6.549999999999999822e+00 8.493909999999999499e-13
6.570000000000000284e+00 7.990750000000000055e-13
6.589999999999999858e+00 7.514689999999999557e-13
6.610000000000000320e+00 7.064550000000000427e-13
6.629999999999999893e+00 6.639189999999999905e-13
6.650000000000000355e+00 6.237489999999999708e-13
6.669999999999999929e+00 5.858329999999999535e-13
6.690000000000000391e+00 5.500629999999999958e-13
6.709999999999999964e+00 5.163350000000000410e-13
6.730000000000000426e+00 4.845480000000000473e-13
6.750000000000000000e+00 4.546039999999999883e-13
6.769999999999999574e+00 4.264069999999999823e-13
6.790000000000000036e+00 3.998669999999999763e-13
6.809999999999999609e+00 3.748980000000000046e-13
6.830000000000000071e+00 3.514140000000000009e-13
6.849999999999999645e+00 3.293509999999999766e-13
6.870000000000000107e+00 3.085989999999999960e-13
6.889999999999999680e+00 2.891050000000000086e-13
6.910000000000000142e+00 2.707970000000000022e-13
6.929999999999999716e+00 2.536089999999999950e-13
6.950000000000000178e+00 2.374759999999999768e-13
6.969999999999999751e+00 2.223399999999999896e-13
6.990000000000000213e+00 2.081410000000000064e-13
7.009999999999999787e+00 1.948240000000000087e-13
7.030000000000000249e+00 1.823390000000000120e-13
7.049999999999999822e+00 1.706370000000000029e-13
7.070000000000000284e+00 1.596699999999999901e-13
7.089999999999999858e+00 1.493939999999999943e-13
7.110000000000000320e+00 1.397699999999999941e-13
7.129999999999999893e+00 1.307560000000000035e-13
7.150000000000000355e+00 1.223169999999999876e-13
7.169999999999999929e+00 1.144169999999999910e-13
7.190000000000000391e+00 1.070239999999999941e-13
7.209999999999999964e+00 1.001060000000000028e-13
7.230000000000000426e+00 9.363479999999999498e-14
7.259999999999999787e+00 8.758219999999999914e-14
7.280000000000000249e+00 8.192279999999999399e-14
7.299999999999999822e+00 7.663200000000000355e-14
7.320000000000000284e+00 7.168680000000000358e-14
7.339999999999999858e+00 6.706579999999999732e-14
7.360000000000000320e+00 6.274879999999999916e-14
7.379999999999999893e+00 5.871670000000000213e-14
7.400000000000000355e+00 5.495149999999999688e-14
7.419999999999999929e+00 5.143639999999999780e-14
7.440000000000000391e+00 4.815579999999999889e-14
7.459999999999999964e+00 4.509480000000000062e-14
7.480000000000000426e+00 4.223929999999999830e-14
7.500000000000000000e+00 3.957639999999999835e-14
7.519999999999999574e+00 3.709390000000000111e-14
7.540000000000000036e+00 3.478019999999999982e-14
7.559999999999999609e+00 3.262450000000000149e-14
7.580000000000000071e+00 3.061680000000000163e-14
7.599999999999999645e+00 2.874749999999999943e-14
7.620000000000000107e+00 2.700780000000000155e-14
7.639999999999999680e+00 2.538929999999999941e-14
7.660000000000000142e+00 2.388430000000000040e-14
7.679999999999999716e+00 2.248539999999999891e-14
7.700000000000000178e+00 2.118580000000000122e-14
7.719999999999999751e+00 1.997900000000000062e-14
7.740000000000000213e+00 1.885909999999999913e-14
7.759999999999999787e+00 1.782040000000000061e-14
7.780000000000000249e+00 1.685760000000000003e-14
7.799999999999999822e+00 1.596570000000000146e-14
7.820000000000000284e+00 1.514029999999999873e-14
7.839999999999999858e+00 1.437679999999999964e-14
7.860000000000000320e+00 1.366970000000000043e-14
7.879999999999999893e+00 1.301810000000000065e-14
7.900000000000000355e+00 1.241719999999999990e-14
7.919999999999999929e+00 1.186350000000000039e-14
7.940000000000000391e+00 1.135399999999999951e-14
7.959999999999999964e+00 1.088569999999999937e-14
7.980000000000000426e+00 1.045590000000000016e-14
8.000000000000000000e+00 1.006210000000000074e-14
8.019999999999999574e+00 9.701809999999999771e-15
8.039999999999999147e+00 9.372799999999999578e-15
8.060000000000000497e+00 9.072969999999999595e-15
8.080000000000000071e+00 8.800380000000000426e-15
8.099999999999999645e+00 8.553139999999999982e-15
8.119999999999999218e+00 8.329549999999999833e-15
8.140000000000000568e+00 8.127970000000000214e-15
8.160000000000000142e+00 7.946899999999999818e-15
8.179999999999999716e+00 7.784920000000000290e-15
8.199999999999999289e+00 7.640689999999999917e-15
8.220000000000000639e+00 7.512979999999999267e-15
8.240000000000000213e+00 7.400630000000000508e-15
8.259999999999999787e+00 7.302529999999999960e-15
8.279999999999999361e+00 7.217659999999999825e-15
8.300000000000000711e+00 7.145070000000000750e-15
8.320000000000000284e+00 7.083859999999999899e-15
8.339999999999999858e+00 7.033190000000000202e-15
8.359999999999999432e+00 6.992270000000000318e-15
8.380000000000000782e+00 6.960379999999999715e-15
8.400000000000000355e+00 6.936810000000000004e-15
8.419999999999999929e+00 6.920930000000000227e-15
8.439999999999999503e+00 6.912119999999999992e-15
8.460000000000000853e+00 6.909829999999999712e-15
8.480000000000000426e+00 6.913520000000000369e-15
8.500000000000000000e+00 6.922689999999999688e-15
