# log10(T) rate(cm^3/s)
# RecombRates
3.500000000000000000e+00 1.410649999999999932e-10
3.520000000000000018e+00 1.370249999999999999e-10
3.540000000000000036e+00 1.330960000000000024e-10
3.560000000000000053e+00 1.292760000000000094e-10
3.580000000000000071e+00 1.255610000000000124e-10
3.600000000000000089e+00 1.219489999999999942e-10
3.620000000000000107e+00 1.184359999999999982e-10
3.640000000000000124e+00 1.150210000000000027e-10
3.660000000000000142e+00 1.116999999999999994e-10
3.680000000000000160e+00 1.084709999999999969e-10
3.700000000000000178e+00 1.053309999999999954e-10
3.720000000000000195e+00 1.022789999999999991e-10
3.740000000000000213e+00 9.931089999999999358e-11
3.759999999999999787e+00 9.642560000000000304e-11
3.779999999999999805e+00 9.362049999999999998e-11
3.799999999999999822e+00 9.089360000000000601e-11
3.819999999999999840e+00 8.824250000000000573e-11
3.839999999999999858e+00 8.566550000000000005e-11
3.859999999999999876e+00 8.316030000000000543e-11
3.879999999999999893e+00 8.072519999999999696e-11
3.899999999999999911e+00 7.835810000000000314e-11
3.919999999999999929e+00 7.605729999999999905e-11
3.939999999999999947e+00 7.382089999999999941e-11
3.959999999999999964e+00 7.164720000000000514e-11
3.979999999999999982e+00 6.953459999999999736e-11
4.000000000000000000e+00 6.748129999999999681e-11
4.019999999999999574e+00 6.548569999999999752e-11
4.040000000000000036e+00 6.354640000000000557e-11
4.059999999999999609e+00 6.166169999999999604e-11
4.080000000000000071e+00 5.983020000000000087e-11
4.099999999999999645e+00 5.805040000000000072e-11
4.120000000000000107e+00 5.632090000000000168e-11
4.139999999999999680e+00 5.464029999999999690e-11
4.160000000000000142e+00 5.300739999999999807e-11
4.179999999999999716e+00 5.142079999999999835e-11
4.200000000000000178e+00 4.987919999999999692e-11
4.219999999999999751e+00 4.838139999999999900e-11
4.240000000000000213e+00 4.692619999999999689e-11
4.259999999999999787e+00 4.551250000000000181e-11
4.280000000000000249e+00 4.413909999999999960e-11
4.299999999999999822e+00 4.280490000000000151e-11
4.320000000000000284e+00 4.150889999999999896e-11
4.339999999999999858e+00 4.024989999999999715e-11
4.360000000000000320e+00 3.902700000000000001e-11
4.379999999999999893e+00 3.783919999999999895e-11
4.400000000000000355e+00 3.668539999999999876e-11
4.419999999999999929e+00 3.556490000000000247e-11
4.440000000000000391e+00 3.447660000000000195e-11
4.459999999999999964e+00 3.341970000000000067e-11
4.480000000000000426e+00 3.239330000000000254e-11
4.500000000000000000e+00 3.139649999999999855e-11
4.519999999999999574e+00 3.042859999999999820e-11
4.540000000000000036e+00 2.948869999999999894e-11
4.559999999999999609e+00 2.857610000000000059e-11
4.580000000000000071e+00 2.769000000000000015e-11
4.599999999999999645e+00 2.682970000000000068e-11
4.620000000000000107e+00 2.599439999999999918e-11
4.639999999999999680e+00 2.518350000000000149e-11
4.660000000000000142e+00 2.439630000000000097e-11
4.679999999999999716e+00 2.363210000000000065e-11
4.700000000000000178e+00 2.289029999999999991e-11
4.719999999999999751e+00 2.217030000000000137e-11
4.740000000000000213e+00 2.147140000000000159e-11
4.769999999999999574e+00 2.079299999999999995e-11
4.790000000000000036e+00 2.013470000000000144e-11
4.809999999999999609e+00 1.949579999999999938e-11
4.830000000000000071e+00 1.887579999999999920e-11
4.849999999999999645e+00 1.827410000000000026e-11
4.870000000000000107e+00 1.769030000000000107e-11
4.889999999999999680e+00 1.712380000000000101e-11
4.910000000000000142e+00 1.657409999999999902e-11
4.929999999999999716e+00 1.604089999999999964e-11
4.950000000000000178e+00 1.552349999999999944e-11
4.969999999999999751e+00 1.502159999999999973e-11
4.990000000000000213e+00 1.453480000000000063e-11
5.009999999999999787e+00 1.406230000000000078e-11
5.030000000000000249e+00 1.360349999999999954e-11
5.049999999999999822e+00 1.315849999999999972e-11
5.070000000000000284e+00 1.272689999999999982e-11
5.089999999999999858e+00 1.230839999999999954e-11
5.110000000000000320e+00 1.190260000000000060e-11
5.129999999999999893e+00 1.150900000000000034e-11
5.150000000000000355e+00 1.112739999999999962e-11
5.169999999999999929e+00 1.075749999999999975e-11
5.190000000000000391e+00 1.039879999999999967e-11
5.209999999999999964e+00 1.005110000000000026e-11
5.230000000000000426e+00 9.713979999999999772e-12
5.250000000000000000e+00 9.387240000000000701e-12
5.269999999999999574e+00 9.070529999999999721e-12
5.290000000000000036e+00 8.763569999999999987e-12
5.309999999999999609e+00 8.465960000000000006e-12
5.330000000000000071e+00 8.177720000000000015e-12
5.349999999999999645e+00 7.898409999999999663e-12
5.370000000000000107e+00 7.627739999999999565e-12
5.389999999999999680e+00 7.365479999999999429e-12
5.410000000000000142e+00 7.111389999999999650e-12
5.429999999999999716e+00 6.865239999999999937e-12
5.450000000000000178e+00 6.626789999999999877e-12
5.469999999999999751e+00 6.395830000000000223e-12
5.490000000000000213e+00 6.172150000000000110e-12
5.509999999999999787e+00 5.955520000000000053e-12
5.530000000000000249e+00 5.745750000000000231e-12
5.549999999999999822e+00 5.542639999999999898e-12
5.570000000000000284e+00 5.346000000000000041e-12
5.589999999999999858e+00 5.155629999999999914e-12
5.610000000000000320e+00 4.971349999999999815e-12
5.629999999999999893e+00 4.792990000000000158e-12
5.650000000000000355e+00 4.620369999999999628e-12
5.669999999999999929e+00 4.453320000000000254e-12
5.690000000000000391e+00 4.291670000000000029e-12
5.709999999999999964e+00 4.135269999999999605e-12
5.730000000000000426e+00 3.983969999999999633e-12
5.750000000000000000e+00 3.837619999999999959e-12
5.769999999999999574e+00 3.696050000000000190e-12
5.790000000000000036e+00 3.559149999999999834e-12
5.809999999999999609e+00 3.426769999999999948e-12
5.830000000000000071e+00 3.298770000000000089e-12
5.849999999999999645e+00 3.175019999999999935e-12
5.870000000000000107e+00 3.055419999999999920e-12
5.889999999999999680e+00 2.939819999999999887e-12
5.910000000000000142e+00 2.828170000000000055e-12
5.929999999999999716e+00 2.720030000000000073e-12
5.950000000000000178e+00 2.615799999999999820e-12
5.969999999999999751e+00 2.515219999999999859e-12
5.990000000000000213e+00 2.418129999999999916e-12
6.009999999999999787e+00 2.324410000000000190e-12
6.030000000000000249e+00 2.233989999999999854e-12
6.049999999999999822e+00 2.146830000000000052e-12
6.070000000000000284e+00 2.062900000000000025e-12
6.089999999999999858e+00 1.982209999999999891e-12
6.110000000000000320e+00 1.904790000000000005e-12
6.129999999999999893e+00 1.830690000000000149e-12
6.150000000000000355e+00 1.759990000000000057e-12
6.169999999999999929e+00 1.692809999999999933e-12
6.190000000000000391e+00 1.629290000000000018e-12
6.209999999999999964e+00 1.569610000000000014e-12
6.230000000000000426e+00 1.513970000000000061e-12
6.250000000000000000e+00 1.462600000000000048e-12
6.269999999999999574e+00 1.415760000000000018e-12
6.290000000000000036e+00 1.373700000000000094e-12
6.309999999999999609e+00 1.336590000000000063e-12
6.330000000000000071e+00 1.304820000000000089e-12
6.349999999999999645e+00 1.278550000000000040e-12
6.370000000000000107e+00 1.257980000000000058e-12
6.389999999999999680e+00 1.243220000000000028e-12
6.410000000000000142e+00 1.234350000000000087e-12
6.429999999999999716e+00 1.231349999999999999e-12
6.450000000000000178e+00 1.234140000000000030e-12
6.469999999999999751e+00 1.242520000000000041e-12
6.490000000000000213e+00 1.256250000000000024e-12
6.509999999999999787e+00 1.274960000000000052e-12
6.530000000000000249e+00 1.298230000000000013e-12
6.549999999999999822e+00 1.325529999999999906e-12
6.570000000000000284e+00 1.356290000000000070e-12
6.589999999999999858e+00 1.389890000000000048e-12
6.610000000000000320e+00 1.425660000000000006e-12
6.629999999999999893e+00 1.462890000000000040e-12
6.650000000000000355e+00 1.500890000000000080e-12
6.669999999999999929e+00 1.538959999999999937e-12
6.690000000000000391e+00 1.576400000000000028e-12
6.709999999999999964e+00 1.612579999999999981e-12
6.730000000000000426e+00 1.646890000000000064e-12
6.750000000000000000e+00 1.678750000000000092e-12
6.769999999999999574e+00 1.707680000000000050e-12
6.790000000000000036e+00 1.733239999999999994e-12
6.809999999999999609e+00 1.755080000000000030e-12
6.830000000000000071e+00 1.772889999999999931e-12
6.849999999999999645e+00 1.786449999999999926e-12
6.870000000000000107e+00 1.795630000000000094e-12
6.889999999999999680e+00 1.800319999999999946e-12
6.910000000000000142e+00 1.800040000000000073e-12
6.929999999999999716e+00 1.795669999999999961e-12
6.950000000000000178e+00 1.786879999999999955e-12
6.969999999999999751e+00 1.773840000000000043e-12
6.990000000000000213e+00 1.756749999999999961e-12
7.009999999999999787e+00 1.735830000000000087e-12
7.030000000000000249e+00 1.711340000000000057e-12
7.049999999999999822e+00 1.683520000000000080e-12
7.070000000000000284e+00 1.652670000000000065e-12
7.089999999999999858e+00 1.619070000000000087e-12
7.110000000000000320e+00 1.583020000000000054e-12
7.129999999999999893e+00 1.544809999999999958e-12
7.150000000000000355e+00 1.504739999999999907e-12
7.169999999999999929e+00 1.463100000000000097e-12
7.190000000000000391e+00 1.420179999999999912e-12
7.209999999999999964e+00 1.376240000000000000e-12
7.230000000000000426e+00 1.331539999999999999e-12
7.259999999999999787e+00 1.286319999999999915e-12
7.280000000000000249e+00 1.240819999999999957e-12
7.299999999999999822e+00 1.195279999999999931e-12
7.320000000000000284e+00 1.149809999999999924e-12
7.339999999999999858e+00 1.104649999999999943e-12
7.360000000000000320e+00 1.059949999999999942e-12
7.379999999999999893e+00 1.015849999999999958e-12
7.400000000000000355e+00 9.724789999999999399e-13
7.419999999999999929e+00 9.299419999999999163e-13
7.440000000000000391e+00 8.883389999999999572e-13
7.459999999999999964e+00 8.477490000000000261e-13
7.480000000000000426e+00 8.082390000000000258e-13
7.500000000000000000e+00 7.698630000000000286e-13
7.519999999999999574e+00 7.326680000000000038e-13
7.540000000000000036e+00 6.966849999999999743e-13
7.559999999999999609e+00 6.619369999999999895e-13
7.580000000000000071e+00 6.284390000000000246e-13
7.599999999999999645e+00 5.961960000000000377e-13
7.620000000000000107e+00 5.652110000000000440e-13
7.639999999999999680e+00 5.354740000000000264e-13
7.660000000000000142e+00 5.069760000000000402e-13
7.679999999999999716e+00 4.796969999999999501e-13
7.700000000000000178e+00 4.536190000000000182e-13
7.719999999999999751e+00 4.287159999999999778e-13
7.740000000000000213e+00 4.049609999999999947e-13
7.759999999999999787e+00 3.823249999999999890e-13
7.780000000000000249e+00 3.607749999999999950e-13
7.799999999999999822e+00 3.402790000000000185e-13
7.820000000000000284e+00 3.208019999999999996e-13
7.839999999999999858e+00 3.023089999999999794e-13
7.860000000000000320e+00 2.847649999999999988e-13
7.879999999999999893e+00 2.681330000000000046e-13
7.900000000000000355e+00 2.524320000000000092e-13
7.919999999999999929e+00 2.375159999999999949e-13
7.940000000000000391e+00 2.234110000000000009e-13
7.959999999999999964e+00 2.100819999999999928e-13
7.980000000000000426e+00 1.974950000000000082e-13
8.000000000000000000e+00 1.856160000000000090e-13
8.019999999999999574e+00 1.744110000000000078e-13
8.039999999999999147e+00 1.638469999999999884e-13
8.060000000000000497e+00 1.538949999999999970e-13
8.080000000000000071e+00 1.445219999999999925e-13
8.099999999999999645e+00 1.356989999999999956e-13
8.119999999999999218e+00 1.273999999999999923e-13
8.140000000000000568e+00 1.195950000000000069e-13
8.160000000000000142e+00 1.122600000000000058e-13
8.179999999999999716e+00 1.053699999999999968e-13
8.199999999999999289e+00 9.890079999999999496e-14
8.220000000000000639e+00 9.283069999999999440e-14
8.240000000000000213e+00 8.713820000000000376e-14
8.259999999999999787e+00 8.180230000000000476e-14
8.279999999999999361e+00 7.680399999999999767e-14
8.300000000000000711e+00 7.212399999999999893e-14
8.320000000000000284e+00 6.774539999999999677e-14
8.339999999999999858e+00 6.365110000000000279e-14
8.359999999999999432e+00 5.982520000000000190e-14
8.380000000000000782e+00 5.625259999999999903e-14
8.400000000000000355e+00 5.291910000000000117e-14
8.419999999999999929e+00 4.981059999999999730e-14
8.439999999999999503e+00 4.691459999999999757e-14
8.460000000000000853e+00 4.421859999999999952e-14
8.480000000000000426e+00 4.171109999999999733e-14
8.500000000000000000e+00 3.938110000000000246e-14
