# log10(T) rate(cm^3/s)
# RecombRates
3.500000000000000000e+00 5.078800000000000210e-11
3.520000000000000018e+00 4.954080000000000071e-11
3.540000000000000036e+00 4.830299999999999724e-11
3.560000000000000053e+00 4.707700000000000065e-11
3.580000000000000071e+00 4.586480000000000224e-11
3.600000000000000089e+00 4.466810000000000108e-11
3.620000000000000107e+00 4.348860000000000273e-11
3.640000000000000124e+00 4.232760000000000152e-11
3.660000000000000142e+00 4.118619999999999913e-11
3.680000000000000160e+00 4.006539999999999768e-11
3.700000000000000178e+00 3.896600000000000017e-11
3.720000000000000195e+00 3.788859999999999751e-11
3.740000000000000213e+00 3.683380000000000002e-11
3.759999999999999787e+00 3.580189999999999995e-11
3.779999999999999805e+00 3.479299999999999685e-11
3.799999999999999822e+00 3.380750000000000190e-11
3.819999999999999840e+00 3.284530000000000263e-11
3.839999999999999858e+00 3.190629999999999946e-11
3.859999999999999876e+00 3.099049999999999886e-11
3.879999999999999893e+00 3.009770000000000170e-11
3.899999999999999911e+00 2.922770000000000237e-11
3.919999999999999929e+00 2.837999999999999984e-11
3.939999999999999947e+00 2.755450000000000098e-11
3.959999999999999964e+00 2.675080000000000108e-11
3.979999999999999982e+00 2.596839999999999909e-11
4.000000000000000000e+00 2.520699999999999952e-11
4.019999999999999574e+00 2.446599999999999854e-11
4.040000000000000036e+00 2.374510000000000067e-11
4.059999999999999609e+00 2.304369999999999884e-11
4.080000000000000071e+00 2.236140000000000123e-11
4.099999999999999645e+00 2.169779999999999990e-11
4.120000000000000107e+00 2.105220000000000111e-11
4.139999999999999680e+00 2.042420000000000015e-11
4.160000000000000142e+00 1.981339999999999876e-11
4.179999999999999716e+00 1.921929999999999910e-11
4.200000000000000178e+00 1.864140000000000012e-11
4.219999999999999751e+00 1.807939999999999989e-11
4.240000000000000213e+00 1.753280000000000058e-11
4.259999999999999787e+00 1.700139999999999983e-11
4.280000000000000249e+00 1.648489999999999895e-11
4.299999999999999822e+00 1.598330000000000117e-11
4.320000000000000284e+00 1.549660000000000003e-11
4.339999999999999858e+00 1.502529999999999980e-11
4.360000000000000320e+00 1.456969999999999920e-11
4.379999999999999893e+00 1.413099999999999946e-11
4.400000000000000355e+00 1.371030000000000066e-11
4.419999999999999929e+00 1.330939999999999981e-11
4.440000000000000391e+00 1.293059999999999985e-11
4.459999999999999964e+00 1.257669999999999992e-11
4.480000000000000426e+00 1.225090000000000064e-11
4.500000000000000000e+00 1.195720000000000079e-11
4.519999999999999574e+00 1.169989999999999945e-11
4.540000000000000036e+00 1.148389999999999956e-11
4.559999999999999609e+00 1.131450000000000071e-11
4.580000000000000071e+00 1.119699999999999924e-11
4.599999999999999645e+00 1.113690000000000034e-11
4.620000000000000107e+00 1.113969999999999948e-11
4.639999999999999680e+00 1.121040000000000078e-11
4.660000000000000142e+00 1.135360000000000041e-11
4.679999999999999716e+00 1.157339999999999994e-11
4.700000000000000178e+00 1.187260000000000012e-11
4.719999999999999751e+00 1.225329999999999990e-11
4.740000000000000213e+00 1.271630000000000065e-11
4.769999999999999574e+00 1.326100000000000014e-11
4.790000000000000036e+00 8.539149999999999213e-12
4.809999999999999609e+00 9.451330000000000684e-12
4.830000000000000071e+00 1.043149999999999973e-11
4.849999999999999645e+00 1.147349999999999953e-11
4.870000000000000107e+00 1.256990000000000039e-11
4.889999999999999680e+00 1.371220000000000048e-11
4.910000000000000142e+00 1.489079999999999952e-11
4.929999999999999716e+00 1.609550000000000144e-11
4.950000000000000178e+00 1.731519999999999957e-11
4.969999999999999751e+00 1.853899999999999926e-11
4.990000000000000213e+00 1.975550000000000160e-11
5.009999999999999787e+00 2.095359999999999990e-11
5.030000000000000249e+00 2.212270000000000145e-11
5.049999999999999822e+00 2.325269999999999845e-11
5.070000000000000284e+00 2.433419999999999945e-11
5.089999999999999858e+00 2.535859999999999981e-11
5.110000000000000320e+00 2.631869999999999851e-11
5.129999999999999893e+00 2.720769999999999927e-11
5.150000000000000355e+00 2.802070000000000075e-11
5.169999999999999929e+00 2.875339999999999903e-11
5.190000000000000391e+00 2.940289999999999702e-11
5.209999999999999964e+00 2.996710000000000062e-11
5.230000000000000426e+00 3.044509999999999757e-11
5.250000000000000000e+00 3.083680000000000124e-11
5.269999999999999574e+00 3.114300000000000170e-11
5.290000000000000036e+00 3.136519999999999887e-11
5.309999999999999609e+00 3.150560000000000259e-11
5.330000000000000071e+00 3.156690000000000113e-11
5.349999999999999645e+00 3.155210000000000083e-11
5.370000000000000107e+00 3.146479999999999897e-11
5.389999999999999680e+00 3.130859999999999929e-11
5.410000000000000142e+00 3.108749999999999734e-11
5.429999999999999716e+00 3.080550000000000157e-11
5.450000000000000178e+00 3.046680000000000019e-11
5.469999999999999751e+00 3.007540000000000168e-11
5.490000000000000213e+00 2.963569999999999983e-11
5.509999999999999787e+00 2.915149999999999751e-11
5.530000000000000249e+00 2.862720000000000145e-11
5.549999999999999822e+00 2.806660000000000160e-11
5.570000000000000284e+00 2.747360000000000039e-11
5.589999999999999858e+00 2.685210000000000026e-11
5.610000000000000320e+00 2.620559999999999892e-11
5.629999999999999893e+00 2.553770000000000012e-11
5.650000000000000355e+00 2.485190000000000157e-11
5.669999999999999929e+00 2.415139999999999905e-11
5.690000000000000391e+00 2.343929999999999848e-11
5.709999999999999964e+00 2.271859999999999975e-11
5.730000000000000426e+00 2.199219999999999993e-11
5.750000000000000000e+00 2.126260000000000110e-11
5.769999999999999574e+00 2.053250000000000122e-11
5.790000000000000036e+00 1.980410000000000040e-11
5.809999999999999609e+00 1.907959999999999879e-11
5.830000000000000071e+00 1.836110000000000019e-11
5.849999999999999645e+00 1.765040000000000000e-11
5.870000000000000107e+00 1.694920000000000052e-11
5.889999999999999680e+00 1.625920000000000084e-11
5.910000000000000142e+00 1.558149999999999939e-11
5.929999999999999716e+00 1.491749999999999980e-11
5.950000000000000178e+00 1.426830000000000050e-11
5.969999999999999751e+00 1.363479999999999921e-11
5.990000000000000213e+00 1.301769999999999935e-11
6.009999999999999787e+00 1.241780000000000066e-11
6.030000000000000249e+00 1.183559999999999937e-11
6.049999999999999822e+00 1.127150000000000019e-11
6.070000000000000284e+00 1.072580000000000020e-11
6.089999999999999858e+00 1.019879999999999972e-11
6.110000000000000320e+00 9.690319999999999850e-12
6.129999999999999893e+00 9.200769999999999780e-12
6.150000000000000355e+00 8.729900000000000596e-12
6.169999999999999929e+00 8.277589999999999265e-12
6.190000000000000391e+00 7.843680000000000360e-12
6.209999999999999964e+00 7.427909999999999194e-12
6.230000000000000426e+00 7.029960000000000067e-12
6.250000000000000000e+00 6.649499999999999889e-12
6.269999999999999574e+00 6.286149999999999826e-12
6.290000000000000036e+00 5.939479999999999648e-12
6.309999999999999609e+00 5.609030000000000385e-12
6.330000000000000071e+00 5.294339999999999835e-12
6.349999999999999645e+00 4.994939999999999717e-12
6.370000000000000107e+00 4.710300000000000235e-12
6.389999999999999680e+00 4.439920000000000331e-12
6.410000000000000142e+00 4.183289999999999636e-12
6.429999999999999716e+00 3.939890000000000088e-12
6.450000000000000178e+00 3.709190000000000273e-12
6.469999999999999751e+00 3.490689999999999942e-12
6.490000000000000213e+00 3.283879999999999938e-12
6.509999999999999787e+00 3.088270000000000128e-12
6.530000000000000249e+00 2.903340000000000026e-12
6.549999999999999822e+00 2.728610000000000023e-12
6.570000000000000284e+00 2.563609999999999817e-12
6.589999999999999858e+00 2.407890000000000153e-12
6.610000000000000320e+00 2.260990000000000042e-12
6.629999999999999893e+00 2.122490000000000178e-12
6.650000000000000355e+00 1.991959999999999925e-12
6.669999999999999929e+00 1.868999999999999811e-12
6.690000000000000391e+00 1.753209999999999958e-12
6.709999999999999964e+00 1.644220000000000036e-12
6.730000000000000426e+00 1.541679999999999950e-12
6.750000000000000000e+00 1.445230000000000093e-12
6.769999999999999574e+00 1.354540000000000002e-12
6.790000000000000036e+00 1.269309999999999970e-12
6.809999999999999609e+00 1.189220000000000056e-12
6.830000000000000071e+00 1.113989999999999982e-12
6.849999999999999645e+00 1.043349999999999992e-12
6.870000000000000107e+00 9.770250000000000702e-13
6.889999999999999680e+00 9.147810000000000378e-13
6.910000000000000142e+00 8.563770000000000172e-13
6.929999999999999716e+00 8.015879999999999767e-13
6.950000000000000178e+00 7.502029999999999892e-13
6.969999999999999751e+00 7.020239999999999579e-13
6.990000000000000213e+00 6.568569999999999748e-13
7.009999999999999787e+00 6.145239999999999773e-13
7.030000000000000249e+00 5.748540000000000060e-13
7.049999999999999822e+00 5.376879999999999602e-13
7.070000000000000284e+00 5.028720000000000003e-13
7.089999999999999858e+00 4.702640000000000448e-13
7.110000000000000320e+00 4.397520000000000128e-13
7.129999999999999893e+00 4.111649999999999954e-13
7.150000000000000355e+00 3.844050000000000165e-13
7.169999999999999929e+00 3.593610000000000174e-13
7.190000000000000391e+00 3.359259999999999764e-13
7.209999999999999964e+00 3.140009999999999966e-13
7.230000000000000426e+00 2.934880000000000011e-13
7.259999999999999787e+00 2.743019999999999958e-13
7.280000000000000249e+00 2.563579999999999867e-13
7.299999999999999822e+00 2.395779999999999814e-13
7.320000000000000284e+00 2.238870000000000031e-13
7.339999999999999858e+00 2.092179999999999977e-13
7.360000000000000320e+00 1.955060000000000052e-13
7.379999999999999893e+00 1.826890000000000054e-13
7.400000000000000355e+00 1.707110000000000084e-13
7.419999999999999929e+00 1.595179999999999924e-13
7.440000000000000391e+00 1.490599999999999980e-13
7.459999999999999964e+00 1.392900000000000053e-13
7.480000000000000426e+00 1.301650000000000063e-13
7.500000000000000000e+00 1.216419999999999930e-13
7.519999999999999574e+00 1.136840000000000006e-13
7.540000000000000036e+00 1.062540000000000009e-13
7.559999999999999609e+00 9.931749999999999560e-14
7.580000000000000071e+00 9.284359999999999427e-14
7.599999999999999645e+00 8.680199999999999960e-14
7.620000000000000107e+00 8.116509999999999511e-14
7.639999999999999680e+00 7.590650000000000074e-14
7.660000000000000142e+00 7.100199999999999372e-14
7.679999999999999716e+00 6.642850000000000568e-14
7.700000000000000178e+00 6.216469999999999663e-14
7.719999999999999751e+00 5.819040000000000618e-14
7.740000000000000213e+00 5.448689999999999955e-14
7.759999999999999787e+00 5.103660000000000262e-14
7.780000000000000249e+00 4.782310000000000198e-14
7.799999999999999822e+00 4.483079999999999791e-14
7.820000000000000284e+00 4.204559999999999832e-14
7.839999999999999858e+00 3.945370000000000131e-14
7.860000000000000320e+00 3.704269999999999901e-14
7.879999999999999893e+00 3.480070000000000084e-14
7.900000000000000355e+00 3.271680000000000025e-14
7.919999999999999929e+00 3.078050000000000072e-14
7.940000000000000391e+00 2.898230000000000238e-14
7.959999999999999964e+00 2.731290000000000093e-14
7.980000000000000426e+00 2.576420000000000004e-14
8.000000000000000000e+00 2.432810000000000023e-14
8.019999999999999574e+00 2.299710000000000129e-14
8.039999999999999147e+00 2.176450000000000094e-14
8.060000000000000497e+00 2.062370000000000102e-14
8.080000000000000071e+00 1.956869999999999946e-14
8.099999999999999645e+00 1.859380000000000012e-14
8.119999999999999218e+00 1.769139999999999871e-14
8.140000000000000568e+00 1.686100000000000005e-14
8.160000000000000142e+00 1.609570000000000002e-14
8.179999999999999716e+00 1.539140000000000157e-14
8.199999999999999289e+00 1.474400000000000134e-14
8.220000000000000639e+00 1.414959999999999942e-14
8.240000000000000213e+00 1.360480000000000050e-14
8.259999999999999787e+00 1.310619999999999986e-14
8.279999999999999361e+00 1.265070000000000024e-14
8.300000000000000711e+00 1.223530000000000063e-14
8.320000000000000284e+00 1.185740000000000055e-14
8.339999999999999858e+00 1.151439999999999951e-14
8.359999999999999432e+00 1.120399999999999983e-14
8.380000000000000782e+00 1.092379999999999973e-14
8.400000000000000355e+00 1.067190000000000051e-14
8.419999999999999929e+00 1.044610000000000067e-14
8.439999999999999503e+00 1.024490000000000048e-14
8.460000000000000853e+00 1.006630000000000030e-14
8.480000000000000426e+00 9.908769999999999490e-15
8.500000000000000000e+00 9.770889999999999703e-15
