# log10(T) rate(cm^3/s)
# RecombRates
3.500000000000000000e+00 1.699319999999999928e-10
3.520000000000000018e+00 1.651169999999999945e-10
3.540000000000000036e+00 1.603250000000000125e-10
3.560000000000000053e+00 1.555679999999999947e-10
3.580000000000000071e+00 1.508609999999999922e-10
3.600000000000000089e+00 1.462149999999999960e-10
3.620000000000000107e+00 1.416390000000000059e-10
3.640000000000000124e+00 1.371419999999999954e-10
3.660000000000000142e+00 1.327309999999999990e-10
3.680000000000000160e+00 1.284119999999999904e-10
3.700000000000000178e+00 1.241909999999999954e-10
3.720000000000000195e+00 1.200709999999999879e-10
3.740000000000000213e+00 1.160549999999999937e-10
3.759999999999999787e+00 1.121459999999999998e-10
3.779999999999999805e+00 1.083450000000000017e-10
3.799999999999999822e+00 1.046540000000000038e-10
3.819999999999999840e+00 1.010719999999999975e-10
3.839999999999999858e+00 9.759919999999999473e-11
3.859999999999999876e+00 9.423499999999999822e-11
3.879999999999999893e+00 9.097850000000000538e-11
3.899999999999999911e+00 8.782800000000000421e-11
3.919999999999999929e+00 8.478190000000000167e-11
3.939999999999999947e+00 8.183829999999999955e-11
3.959999999999999964e+00 7.899499999999999449e-11
3.979999999999999982e+00 7.624959999999999692e-11
4.000000000000000000e+00 7.359959999999999832e-11
4.019999999999999574e+00 7.104239999999999706e-11
4.040000000000000036e+00 6.857549999999999754e-11
4.059999999999999609e+00 6.619589999999999989e-11
4.080000000000000071e+00 6.390100000000000247e-11
4.099999999999999645e+00 6.168809999999999763e-11
4.120000000000000107e+00 5.955419999999999841e-11
4.139999999999999680e+00 5.749659999999999716e-11
4.160000000000000142e+00 5.551269999999999872e-11
4.179999999999999716e+00 5.359960000000000276e-11
4.200000000000000178e+00 5.175490000000000033e-11
4.219999999999999751e+00 4.997590000000000317e-11
4.240000000000000213e+00 4.826020000000000231e-11
4.259999999999999787e+00 4.660540000000000173e-11
4.280000000000000249e+00 4.500939999999999762e-11
4.299999999999999822e+00 4.347019999999999869e-11
4.320000000000000284e+00 4.198590000000000026e-11
4.339999999999999858e+00 4.055520000000000151e-11
4.360000000000000320e+00 3.917680000000000165e-11
4.379999999999999893e+00 3.784989999999999768e-11
4.400000000000000355e+00 3.657429999999999694e-11
4.419999999999999929e+00 3.535019999999999855e-11
4.440000000000000391e+00 3.417849999999999861e-11
4.459999999999999964e+00 3.306080000000000308e-11
4.480000000000000426e+00 3.199920000000000283e-11
4.500000000000000000e+00 3.099700000000000292e-11
4.519999999999999574e+00 3.005799999999999976e-11
4.540000000000000036e+00 2.918679999999999919e-11
4.559999999999999609e+00 2.838889999999999993e-11
4.580000000000000071e+00 2.767029999999999853e-11
4.599999999999999645e+00 2.703749999999999904e-11
4.620000000000000107e+00 2.649730000000000100e-11
4.639999999999999680e+00 2.605679999999999940e-11
4.660000000000000142e+00 2.572250000000000152e-11
4.679999999999999716e+00 2.550079999999999894e-11
4.700000000000000178e+00 2.539720000000000007e-11
4.719999999999999751e+00 2.541589999999999957e-11
4.740000000000000213e+00 2.556019999999999927e-11
4.769999999999999574e+00 2.583130000000000041e-11
4.790000000000000036e+00 1.096410000000000010e-11
4.809999999999999609e+00 1.208649999999999944e-11
4.830000000000000071e+00 1.331389999999999964e-11
4.849999999999999645e+00 1.463990000000000106e-11
4.870000000000000107e+00 1.605599999999999863e-11
4.889999999999999680e+00 1.755179999999999878e-11
4.910000000000000142e+00 1.911480000000000091e-11
4.929999999999999716e+00 2.073120000000000036e-11
4.950000000000000178e+00 2.238559999999999945e-11
4.969999999999999751e+00 2.406190000000000029e-11
4.990000000000000213e+00 2.574340000000000116e-11
5.009999999999999787e+00 2.741310000000000160e-11
5.030000000000000249e+00 2.905449999999999903e-11
5.049999999999999822e+00 3.065110000000000053e-11
5.070000000000000284e+00 3.218800000000000300e-11
5.089999999999999858e+00 3.365110000000000309e-11
5.110000000000000320e+00 3.502779999999999742e-11
5.129999999999999893e+00 3.630710000000000147e-11
5.150000000000000355e+00 3.748000000000000266e-11
5.169999999999999929e+00 3.853910000000000085e-11
5.190000000000000391e+00 3.947900000000000010e-11
5.209999999999999964e+00 4.029599999999999713e-11
5.230000000000000426e+00 4.098849999999999887e-11
5.250000000000000000e+00 4.155629999999999974e-11
5.269999999999999574e+00 4.200060000000000099e-11
5.290000000000000036e+00 4.232409999999999734e-11
5.309999999999999609e+00 4.253069999999999769e-11
5.330000000000000071e+00 4.262490000000000187e-11
5.349999999999999645e+00 4.261259999999999717e-11
5.370000000000000107e+00 4.249959999999999715e-11
5.389999999999999680e+00 4.229229999999999984e-11
5.410000000000000142e+00 4.199750000000000154e-11
5.429999999999999716e+00 4.162189999999999898e-11
5.450000000000000178e+00 4.117220000000000181e-11
5.469999999999999751e+00 4.065510000000000031e-11
5.490000000000000213e+00 4.007689999999999940e-11
5.509999999999999787e+00 3.944369999999999843e-11
5.530000000000000249e+00 3.876149999999999715e-11
5.549999999999999822e+00 3.803569999999999796e-11
5.570000000000000284e+00 3.727149999999999764e-11
5.589999999999999858e+00 3.647380000000000075e-11
5.610000000000000320e+00 3.564710000000000065e-11
5.629999999999999893e+00 3.479549999999999891e-11
5.650000000000000355e+00 3.392320000000000312e-11
5.669999999999999929e+00 3.303369999999999807e-11
5.690000000000000391e+00 3.213040000000000130e-11
5.709999999999999964e+00 3.121639999999999934e-11
5.730000000000000426e+00 3.029489999999999767e-11
5.750000000000000000e+00 2.936869999999999703e-11
5.769999999999999574e+00 2.844039999999999905e-11
5.790000000000000036e+00 2.751239999999999978e-11
5.809999999999999609e+00 2.658709999999999846e-11
5.830000000000000071e+00 2.566669999999999846e-11
5.849999999999999645e+00 2.475310000000000123e-11
5.870000000000000107e+00 2.384840000000000085e-11
5.889999999999999680e+00 2.295429999999999964e-11
5.910000000000000142e+00 2.207240000000000034e-11
5.929999999999999716e+00 2.120419999999999966e-11
5.950000000000000178e+00 2.035130000000000033e-11
5.969999999999999751e+00 1.951470000000000125e-11
5.990000000000000213e+00 1.869570000000000000e-11
6.009999999999999787e+00 1.789529999999999868e-11
6.030000000000000249e+00 1.711430000000000029e-11
6.049999999999999822e+00 1.635360000000000092e-11
6.070000000000000284e+00 1.561380000000000118e-11
6.089999999999999858e+00 1.489529999999999935e-11
6.110000000000000320e+00 1.419880000000000045e-11
6.129999999999999893e+00 1.352439999999999920e-11
6.150000000000000355e+00 1.287240000000000077e-11
6.169999999999999929e+00 1.224289999999999986e-11
6.190000000000000391e+00 1.163589999999999972e-11
6.209999999999999964e+00 1.105149999999999991e-11
6.230000000000000426e+00 1.048930000000000055e-11
6.250000000000000000e+00 9.949320000000000261e-12
6.269999999999999574e+00 9.431219999999999874e-12
6.290000000000000036e+00 8.934660000000000221e-12
6.309999999999999609e+00 8.459009999999999516e-12
6.330000000000000071e+00 8.004289999999999612e-12
6.349999999999999645e+00 7.569829999999999866e-12
6.370000000000000107e+00 7.155140000000000145e-12
6.389999999999999680e+00 6.759669999999999610e-12
6.410000000000000142e+00 6.382919999999999625e-12
6.429999999999999716e+00 6.024290000000000375e-12
6.450000000000000178e+00 5.683179999999999620e-12
6.469999999999999751e+00 5.359020000000000322e-12
6.490000000000000213e+00 5.051190000000000007e-12
6.509999999999999787e+00 4.759089999999999667e-12
6.530000000000000249e+00 4.482100000000000056e-12
6.549999999999999822e+00 4.219629999999999863e-12
6.570000000000000284e+00 3.971080000000000079e-12
6.589999999999999858e+00 3.735850000000000081e-12
6.610000000000000320e+00 3.513370000000000003e-12
6.629999999999999893e+00 3.303050000000000148e-12
6.650000000000000355e+00 3.104370000000000029e-12
6.669999999999999929e+00 2.916760000000000185e-12
6.690000000000000391e+00 2.739709999999999844e-12
6.709999999999999964e+00 2.572690000000000017e-12
6.730000000000000426e+00 2.415219999999999881e-12
6.750000000000000000e+00 2.266810000000000112e-12
6.769999999999999574e+00 2.127000000000000125e-12
6.790000000000000036e+00 1.995349999999999975e-12
6.809999999999999609e+00 1.871439999999999950e-12
6.830000000000000071e+00 1.754840000000000023e-12
6.849999999999999645e+00 1.645180000000000064e-12
6.870000000000000107e+00 1.542059999999999995e-12
6.889999999999999680e+00 1.445140000000000040e-12
6.910000000000000142e+00 1.354069999999999904e-12
6.929999999999999716e+00 1.268519999999999930e-12
6.950000000000000178e+00 1.188180000000000093e-12
6.969999999999999751e+00 1.112750000000000080e-12
6.990000000000000213e+00 1.041959999999999934e-12
7.009999999999999787e+00 9.755229999999999823e-13
7.030000000000000249e+00 9.132009999999999577e-13
7.049999999999999822e+00 8.547469999999999525e-13
7.070000000000000284e+00 7.999309999999999768e-13
7.089999999999999858e+00 7.485399999999999588e-13
7.110000000000000320e+00 7.003699999999999732e-13
7.129999999999999893e+00 6.552270000000000110e-13
7.150000000000000355e+00 6.129279999999999506e-13
7.169999999999999929e+00 5.732999999999999906e-13
7.190000000000000391e+00 5.361819999999999866e-13
7.209999999999999964e+00 5.014209999999999694e-13
7.230000000000000426e+00 4.688709999999999718e-13
7.259999999999999787e+00 4.383950000000000217e-13
7.280000000000000249e+00 4.098680000000000060e-13
7.299999999999999822e+00 3.831950000000000146e-13
7.320000000000000284e+00 3.582060000000000087e-13
7.339999999999999858e+00 3.348260000000000114e-13
7.360000000000000320e+00 3.129539999999999810e-13
7.379999999999999893e+00 2.924970000000000006e-13
7.400000000000000355e+00 2.733639999999999952e-13
7.419999999999999929e+00 2.554729999999999859e-13
7.440000000000000391e+00 2.387439999999999872e-13
7.459999999999999964e+00 2.231050000000000121e-13
7.480000000000000426e+00 2.084839999999999980e-13
7.500000000000000000e+00 1.948180000000000035e-13
7.519999999999999574e+00 1.820470000000000017e-13
7.540000000000000036e+00 1.701119999999999874e-13
7.559999999999999609e+00 1.589600000000000113e-13
7.580000000000000071e+00 1.485409999999999878e-13
7.599999999999999645e+00 1.388089999999999945e-13
7.620000000000000107e+00 1.297190000000000049e-13
7.639999999999999680e+00 1.212300000000000045e-13
7.660000000000000142e+00 1.133040000000000062e-13
7.679999999999999716e+00 1.059039999999999948e-13
7.700000000000000178e+00 9.899759999999999764e-14
7.719999999999999751e+00 9.255170000000000387e-14
7.740000000000000213e+00 8.653740000000000394e-14
7.759999999999999787e+00 8.092659999999999567e-14
7.780000000000000249e+00 7.569369999999999381e-14
7.799999999999999822e+00 7.081389999999999526e-14
7.820000000000000284e+00 6.626479999999999397e-14
7.839999999999999858e+00 6.202480000000000396e-14
7.860000000000000320e+00 5.807420000000000007e-14
7.879999999999999893e+00 5.439410000000000245e-14
7.900000000000000355e+00 5.096700000000000007e-14
7.919999999999999929e+00 4.777659999999999935e-14
7.940000000000000391e+00 4.480769999999999799e-14
7.959999999999999964e+00 4.204559999999999832e-14
7.980000000000000426e+00 3.947729999999999956e-14
8.000000000000000000e+00 3.708990000000000183e-14
8.019999999999999574e+00 3.487179999999999839e-14
8.039999999999999147e+00 3.281200000000000069e-14
8.060000000000000497e+00 3.090020000000000146e-14
8.080000000000000071e+00 2.912690000000000082e-14
8.099999999999999645e+00 2.748280000000000079e-14
8.119999999999999218e+00 2.595979999999999872e-14
8.140000000000000568e+00 2.454970000000000052e-14
8.160000000000000142e+00 2.324520000000000151e-14
8.179999999999999716e+00 2.203959999999999943e-14
8.199999999999999289e+00 2.092620000000000150e-14
8.220000000000000639e+00 1.989910000000000025e-14
8.240000000000000213e+00 1.895259999999999956e-14
8.259999999999999787e+00 1.808140000000000071e-14
8.279999999999999361e+00 1.728059999999999921e-14
8.300000000000000711e+00 1.654270000000000117e-14
8.320000000000000284e+00 1.586850000000000137e-14
8.339999999999999858e+00 1.525160000000000036e-14
8.359999999999999432e+00 1.468829999999999849e-14
8.380000000000000782e+00 1.417489999999999926e-14
8.400000000000000355e+00 1.370819999999999978e-14
8.419999999999999929e+00 1.328500000000000032e-14
8.439999999999999503e+00 1.290229999999999984e-14
8.460000000000000853e+00 1.255749999999999944e-14
8.480000000000000426e+00 1.224789999999999930e-14
8.500000000000000000e+00 1.197129999999999950e-14
