# log10(T) rate(cm^3/s)
# RecombRates
3.500000000000000000e+00 6.357689999999999580e-11
3.520000000000000018e+00 6.181869999999999871e-11
3.540000000000000036e+00 6.013889999999999692e-11
3.560000000000000053e+00 5.854169999999999803e-11
3.580000000000000071e+00 5.703170000000000143e-11
3.600000000000000089e+00 5.561379999999999876e-11
3.620000000000000107e+00 5.429290000000000103e-11
3.640000000000000124e+00 5.307389999999999986e-11
3.660000000000000142e+00 5.196100000000000286e-11
3.680000000000000160e+00 5.095780000000000083e-11
3.700000000000000178e+00 5.006700000000000144e-11
3.720000000000000195e+00 4.929019999999999772e-11
3.740000000000000213e+00 4.862770000000000130e-11
3.759999999999999787e+00 4.807809999999999887e-11
3.779999999999999805e+00 4.763870000000000218e-11
3.799999999999999822e+00 4.730519999999999759e-11
3.819999999999999840e+00 4.707179999999999740e-11
3.839999999999999858e+00 4.693120000000000100e-11
3.859999999999999876e+00 4.687499999999999969e-11
3.879999999999999893e+00 4.689370000000000243e-11
3.899999999999999911e+00 4.697680000000000315e-11
3.919999999999999929e+00 4.711360000000000313e-11
3.939999999999999947e+00 4.729279999999999979e-11
3.959999999999999964e+00 4.750309999999999698e-11
3.979999999999999982e+00 4.773349999999999729e-11
4.000000000000000000e+00 4.797330000000000199e-11
4.019999999999999574e+00 4.821250000000000282e-11
4.040000000000000036e+00 4.844190000000000102e-11
4.059999999999999609e+00 4.865329999999999990e-11
4.080000000000000071e+00 4.883949999999999844e-11
4.099999999999999645e+00 4.899460000000000289e-11
4.120000000000000107e+00 4.911380000000000182e-11
4.139999999999999680e+00 4.919390000000000266e-11
4.160000000000000142e+00 4.923300000000000075e-11
4.179999999999999716e+00 4.923059999999999825e-11
4.200000000000000178e+00 4.918779999999999686e-11
4.219999999999999751e+00 4.910729999999999776e-11
4.240000000000000213e+00 4.899320000000000252e-11
4.259999999999999787e+00 4.885159999999999755e-11
4.280000000000000249e+00 4.868990000000000239e-11
4.299999999999999822e+00 4.851709999999999731e-11
4.320000000000000284e+00 4.834390000000000043e-11
4.339999999999999858e+00 4.818190000000000011e-11
4.360000000000000320e+00 4.804409999999999801e-11
4.379999999999999893e+00 4.794409999999999965e-11
4.400000000000000355e+00 4.789580000000000277e-11
4.419999999999999929e+00 4.791319999999999823e-11
4.440000000000000391e+00 4.800989999999999801e-11
4.459999999999999964e+00 4.819800000000000122e-11
4.480000000000000426e+00 4.848849999999999882e-11
4.500000000000000000e+00 4.889039999999999694e-11
4.519999999999999574e+00 4.940990000000000093e-11
4.540000000000000036e+00 5.005090000000000032e-11
4.559999999999999609e+00 5.081379999999999983e-11
4.580000000000000071e+00 5.169619999999999696e-11
4.599999999999999645e+00 5.269209999999999840e-11
4.620000000000000107e+00 5.379259999999999760e-11
4.639999999999999680e+00 5.498560000000000190e-11
4.660000000000000142e+00 5.625649999999999723e-11
4.679999999999999716e+00 5.758829999999999929e-11
4.700000000000000178e+00 5.896149999999999590e-11
4.719999999999999751e+00 6.035609999999999644e-11
4.740000000000000213e+00 6.175129999999999437e-11
4.769999999999999574e+00 6.312540000000000000e-11
4.790000000000000036e+00 6.445700000000000292e-11
4.809999999999999609e+00 6.572550000000000222e-11
4.830000000000000071e+00 6.691150000000000463e-11
4.849999999999999645e+00 6.799670000000000570e-11
4.870000000000000107e+00 6.896480000000000518e-11
4.889999999999999680e+00 6.980179999999999930e-11
4.910000000000000142e+00 7.049559999999999539e-11
4.929999999999999716e+00 7.103670000000000244e-11
4.950000000000000178e+00 7.141790000000000005e-11
4.969999999999999751e+00 7.163430000000000305e-11
4.990000000000000213e+00 7.168380000000000117e-11
5.009999999999999787e+00 7.156559999999999790e-11
5.030000000000000249e+00 7.128200000000000262e-11
5.049999999999999822e+00 7.083699999999999795e-11
5.070000000000000284e+00 7.023590000000000610e-11
5.089999999999999858e+00 6.948549999999999750e-11
5.110000000000000320e+00 6.859430000000000631e-11
5.129999999999999893e+00 6.757170000000000459e-11
5.150000000000000355e+00 6.642800000000000573e-11
5.169999999999999929e+00 6.517409999999999469e-11
5.190000000000000391e+00 6.382150000000000548e-11
5.209999999999999964e+00 6.238180000000000062e-11
5.230000000000000426e+00 6.086680000000000637e-11
5.250000000000000000e+00 5.928829999999999729e-11
5.269999999999999574e+00 5.765800000000000009e-11
5.290000000000000036e+00 5.598709999999999839e-11
5.309999999999999609e+00 5.428650000000000299e-11
5.330000000000000071e+00 5.256650000000000144e-11
5.349999999999999645e+00 5.083700000000000240e-11
5.370000000000000107e+00 4.910679999999999993e-11
5.389999999999999680e+00 4.738440000000000234e-11
5.410000000000000142e+00 4.567730000000000288e-11
5.429999999999999716e+00 4.399229999999999785e-11
5.450000000000000178e+00 4.233520000000000080e-11
5.469999999999999751e+00 4.071110000000000250e-11
5.490000000000000213e+00 3.912440000000000321e-11
5.509999999999999787e+00 3.757850000000000108e-11
5.530000000000000249e+00 3.607619999999999687e-11
5.549999999999999822e+00 3.461950000000000127e-11
5.570000000000000284e+00 3.320990000000000130e-11
5.589999999999999858e+00 3.184839999999999907e-11
5.610000000000000320e+00 3.053439999999999720e-11
5.629999999999999893e+00 2.926869999999999867e-11
5.650000000000000355e+00 2.805050000000000048e-11
5.669999999999999929e+00 2.687899999999999967e-11
5.690000000000000391e+00 2.575269999999999951e-11
5.709999999999999964e+00 2.467050000000000156e-11
5.730000000000000426e+00 2.363089999999999940e-11
5.750000000000000000e+00 2.263210000000000087e-11
5.769999999999999574e+00 2.167269999999999912e-11
5.790000000000000036e+00 2.075079999999999919e-11
5.809999999999999609e+00 1.986490000000000111e-11
5.830000000000000071e+00 1.901339999999999893e-11
5.849999999999999645e+00 1.819460000000000004e-11
5.870000000000000107e+00 1.740700000000000126e-11
5.889999999999999680e+00 1.664940000000000133e-11
5.910000000000000142e+00 1.592020000000000077e-11
5.929999999999999716e+00 1.521830000000000110e-11
5.950000000000000178e+00 1.454260000000000066e-11
5.969999999999999751e+00 1.389199999999999937e-11
5.990000000000000213e+00 1.326529999999999922e-11
6.009999999999999787e+00 1.266189999999999959e-11
6.030000000000000249e+00 1.208110000000000029e-11
6.049999999999999822e+00 1.152189999999999920e-11
6.070000000000000284e+00 1.098359999999999936e-11
6.089999999999999858e+00 1.046560000000000016e-11
6.110000000000000320e+00 9.967389999999999598e-12
6.129999999999999893e+00 9.488329999999999819e-12
6.150000000000000355e+00 9.027879999999999292e-12
6.169999999999999929e+00 8.585560000000000426e-12
6.190000000000000391e+00 8.160879999999999856e-12
6.209999999999999964e+00 7.753369999999999304e-12
6.230000000000000426e+00 7.362560000000000487e-12
6.250000000000000000e+00 6.987999999999999708e-12
6.269999999999999574e+00 6.629270000000000085e-12
6.290000000000000036e+00 6.285910000000000223e-12
6.309999999999999609e+00 5.957479999999999774e-12
6.330000000000000071e+00 5.643550000000000121e-12
6.349999999999999645e+00 5.343700000000000343e-12
6.370000000000000107e+00 5.057490000000000092e-12
6.389999999999999680e+00 4.784469999999999706e-12
6.410000000000000142e+00 4.524240000000000117e-12
6.429999999999999716e+00 4.276339999999999932e-12
6.450000000000000178e+00 4.040359999999999962e-12
6.469999999999999751e+00 3.815859999999999858e-12
6.490000000000000213e+00 3.602449999999999862e-12
6.509999999999999787e+00 3.399679999999999909e-12
6.530000000000000249e+00 3.207140000000000004e-12
6.549999999999999822e+00 3.024439999999999985e-12
6.570000000000000284e+00 2.851179999999999974e-12
6.589999999999999858e+00 2.686629999999999832e-12
6.610000000000000320e+00 2.531019999999999852e-12
6.629999999999999893e+00 2.383619999999999894e-12
6.650000000000000355e+00 2.244119999999999933e-12
6.669999999999999929e+00 2.112150000000000042e-12
6.690000000000000391e+00 1.987390000000000077e-12
6.709999999999999964e+00 1.869500000000000061e-12
6.730000000000000426e+00 1.758149999999999935e-12
6.750000000000000000e+00 1.653030000000000076e-12
6.769999999999999574e+00 1.553830000000000054e-12
6.790000000000000036e+00 1.460249999999999963e-12
6.809999999999999609e+00 1.372000000000000010e-12
6.830000000000000071e+00 1.288810000000000039e-12
6.849999999999999645e+00 1.210420000000000006e-12
6.870000000000000107e+00 1.136570000000000073e-12
6.889999999999999680e+00 1.067029999999999948e-12
6.910000000000000142e+00 1.001549999999999908e-12
6.929999999999999716e+00 9.399339999999999004e-13
6.950000000000000178e+00 8.819560000000000236e-13
6.969999999999999751e+00 8.274219999999999654e-13
6.990000000000000213e+00 7.761679999999999699e-13
7.009999999999999787e+00 7.279589999999999883e-13
7.030000000000000249e+00 6.826350000000000493e-13
7.049999999999999822e+00 6.400600000000000010e-13
7.070000000000000284e+00 6.000629999999999847e-13
7.089999999999999858e+00 5.624969999999999608e-13
7.110000000000000320e+00 5.272219999999999925e-13
7.129999999999999893e+00 4.941030000000000000e-13
7.150000000000000355e+00 4.630150000000000218e-13
7.169999999999999929e+00 4.338380000000000039e-13
7.190000000000000391e+00 4.064609999999999884e-13
7.209999999999999964e+00 3.807739999999999889e-13
7.230000000000000426e+00 3.566789999999999789e-13
7.259999999999999787e+00 3.340779999999999827e-13
7.280000000000000249e+00 3.128840000000000126e-13
7.299999999999999822e+00 2.930099999999999803e-13
7.320000000000000284e+00 2.743760000000000014e-13
7.339999999999999858e+00 2.569080000000000197e-13
7.360000000000000320e+00 2.405340000000000230e-13
7.379999999999999893e+00 2.251870000000000077e-13
7.400000000000000355e+00 2.108040000000000073e-13
7.419999999999999929e+00 1.973259999999999914e-13
7.440000000000000391e+00 1.846979999999999921e-13
7.459999999999999964e+00 1.728659999999999876e-13
7.480000000000000426e+00 1.617809999999999899e-13
7.500000000000000000e+00 1.513979999999999977e-13
7.519999999999999574e+00 1.416730000000000063e-13
7.540000000000000036e+00 1.325640000000000044e-13
7.559999999999999609e+00 1.240350000000000112e-13
7.580000000000000071e+00 1.160480000000000019e-13
7.599999999999999645e+00 1.086070000000000011e-13
7.620000000000000107e+00 1.016059999999999964e-13
7.639999999999999680e+00 9.505720000000000011e-14
7.660000000000000142e+00 8.893209999999999372e-14
7.679999999999999716e+00 8.320420000000000255e-14
7.700000000000000178e+00 7.784880000000000550e-14
7.719999999999999751e+00 7.284209999999999615e-14
7.740000000000000213e+00 6.816220000000000465e-14
7.759999999999999787e+00 6.378830000000000195e-14
7.780000000000000249e+00 5.970129999999999371e-14
7.799999999999999822e+00 5.588300000000000028e-14
7.820000000000000284e+00 5.231669999999999911e-14
7.839999999999999858e+00 4.898639999999999941e-14
7.860000000000000320e+00 4.587759999999999906e-14
7.879999999999999893e+00 4.297650000000000247e-14
7.900000000000000355e+00 4.027039999999999898e-14
7.919999999999999929e+00 3.774710000000000155e-14
7.940000000000000391e+00 3.539550000000000175e-14
7.959999999999999964e+00 3.320500000000000215e-14
7.980000000000000426e+00 3.116580000000000009e-14
8.000000000000000000e+00 2.926859999999999759e-14
8.019999999999999574e+00 2.750490000000000090e-14
8.039999999999999147e+00 2.586650000000000015e-14
8.060000000000000497e+00 2.434580000000000050e-14
8.080000000000000071e+00 2.293560000000000137e-14
8.099999999999999645e+00 2.162920000000000050e-14
8.119999999999999218e+00 2.042040000000000026e-14
8.140000000000000568e+00 1.930310000000000082e-14
8.160000000000000142e+00 1.827189999999999937e-14
8.179999999999999716e+00 1.732150000000000033e-14
8.199999999999999289e+00 1.644690000000000146e-14
8.220000000000000639e+00 1.564380000000000070e-14
8.240000000000000213e+00 1.490759999999999951e-14
8.259999999999999787e+00 1.423429999999999860e-14
8.279999999999999361e+00 1.362010000000000057e-14
8.300000000000000711e+00 1.306140000000000039e-14
8.320000000000000284e+00 1.255479999999999961e-14
8.339999999999999858e+00 1.209719999999999944e-14
8.359999999999999432e+00 1.168540000000000012e-14
8.380000000000000782e+00 1.131679999999999961e-14
8.400000000000000355e+00 1.098869999999999967e-14
8.419999999999999929e+00 1.069860000000000073e-14
8.439999999999999503e+00 1.044420000000000038e-14
8.460000000000000853e+00 1.022310000000000000e-14
8.480000000000000426e+00 1.003350000000000024e-14
8.500000000000000000e+00 9.873240000000000271e-15
