# log10(T) rate(cm^3/s)
# RecombRates
3.500000000000000000e+00 1.341589999999999914e-09
3.520000000000000018e+00 1.273920000000000084e-09
3.540000000000000036e+00 1.209530000000000061e-09
3.560000000000000053e+00 1.148320000000000022e-09
3.580000000000000071e+00 1.090180000000000055e-09
3.600000000000000089e+00 1.034989999999999959e-09
3.620000000000000107e+00 9.826240000000001008e-10
3.640000000000000124e+00 9.329789999999999067e-10
3.660000000000000142e+00 8.859319999999999760e-10
3.680000000000000160e+00 8.413699999999999597e-10
3.700000000000000178e+00 7.991790000000000172e-10
3.720000000000000195e+00 7.592470000000000149e-10
3.740000000000000213e+00 7.214679999999999740e-10
3.759999999999999787e+00 6.857340000000000021e-10
3.779999999999999805e+00 6.519439999999999564e-10
3.799999999999999822e+00 6.200010000000000389e-10
3.819999999999999840e+00 5.898070000000000292e-10
3.839999999999999858e+00 5.612739999999999997e-10
3.859999999999999876e+00 5.343109999999999967e-10
3.879999999999999893e+00 5.088370000000000493e-10
3.899999999999999911e+00 4.847699999999999710e-10
3.919999999999999929e+00 4.620339999999999887e-10
3.939999999999999947e+00 4.405559999999999932e-10
3.959999999999999964e+00 4.202660000000000044e-10
3.979999999999999982e+00 4.010999999999999901e-10
4.000000000000000000e+00 3.829930000000000132e-10
4.019999999999999574e+00 3.658869999999999898e-10
4.040000000000000036e+00 3.497260000000000081e-10
4.059999999999999609e+00 3.344550000000000098e-10
4.080000000000000071e+00 3.200259999999999969e-10
4.099999999999999645e+00 3.063890000000000056e-10
4.120000000000000107e+00 2.934990000000000119e-10
4.139999999999999680e+00 2.813150000000000258e-10
4.160000000000000142e+00 2.697960000000000059e-10
4.179999999999999716e+00 2.589049999999999967e-10
4.200000000000000178e+00 2.486049999999999909e-10
4.219999999999999751e+00 2.388620000000000071e-10
4.240000000000000213e+00 2.296470000000000032e-10
4.259999999999999787e+00 2.209270000000000065e-10
4.280000000000000249e+00 2.126760000000000005e-10
4.299999999999999822e+00 2.048670000000000123e-10
4.320000000000000284e+00 1.974750000000000083e-10
4.339999999999999858e+00 1.904769999999999979e-10
4.360000000000000320e+00 1.838499999999999907e-10
4.379999999999999893e+00 1.775739999999999960e-10
4.400000000000000355e+00 1.716300000000000060e-10
4.419999999999999929e+00 1.659999999999999954e-10
4.440000000000000391e+00 1.606659999999999909e-10
4.459999999999999964e+00 1.556120000000000102e-10
4.480000000000000426e+00 1.508230000000000023e-10
4.500000000000000000e+00 1.462850000000000020e-10
4.519999999999999574e+00 1.419850000000000013e-10
4.540000000000000036e+00 1.379090000000000094e-10
4.559999999999999609e+00 1.340480000000000007e-10
4.580000000000000071e+00 1.303880000000000103e-10
4.599999999999999645e+00 1.269200000000000125e-10
4.620000000000000107e+00 1.236350000000000078e-10
4.639999999999999680e+00 1.205229999999999880e-10
4.660000000000000142e+00 1.175759999999999877e-10
4.679999999999999716e+00 1.147849999999999945e-10
4.700000000000000178e+00 1.121439999999999955e-10
4.719999999999999751e+00 1.096440000000000042e-10
4.740000000000000213e+00 1.072800000000000033e-10
4.769999999999999574e+00 1.050460000000000062e-10
4.790000000000000036e+00 4.154670000000000269e-11
4.809999999999999609e+00 4.352949999999999945e-11
4.830000000000000071e+00 4.568020000000000320e-11
4.849999999999999645e+00 4.798550000000000066e-11
4.870000000000000107e+00 5.042779999999999723e-11
4.889999999999999680e+00 5.298570000000000191e-11
4.910000000000000142e+00 5.563430000000000014e-11
4.929999999999999716e+00 5.834569999999999685e-11
4.950000000000000178e+00 6.108989999999999963e-11
4.969999999999999751e+00 6.383560000000000236e-11
4.990000000000000213e+00 6.655100000000000107e-11
5.009999999999999787e+00 6.920419999999999869e-11
5.030000000000000249e+00 7.176470000000000500e-11
5.049999999999999822e+00 7.420290000000000646e-11
5.070000000000000284e+00 7.649189999999999721e-11
5.089999999999999858e+00 7.860719999999999972e-11
5.110000000000000320e+00 8.052749999999999670e-11
5.129999999999999893e+00 8.223469999999999572e-11
5.150000000000000355e+00 8.371430000000000166e-11
5.169999999999999929e+00 8.495540000000000371e-11
5.190000000000000391e+00 8.595079999999999440e-11
5.209999999999999964e+00 8.669670000000000317e-11
5.230000000000000426e+00 8.719279999999999900e-11
5.250000000000000000e+00 8.744169999999999646e-11
5.269999999999999574e+00 8.744910000000000307e-11
5.290000000000000036e+00 8.722299999999999700e-11
5.309999999999999609e+00 8.677370000000000456e-11
5.330000000000000071e+00 8.611339999999999857e-11
5.349999999999999645e+00 8.525549999999999836e-11
5.370000000000000107e+00 8.421469999999999819e-11
5.389999999999999680e+00 8.300639999999999576e-11
5.410000000000000142e+00 8.164650000000000597e-11
5.429999999999999716e+00 8.015090000000000495e-11
5.450000000000000178e+00 7.853560000000000071e-11
5.469999999999999751e+00 7.681609999999999698e-11
5.490000000000000213e+00 7.500740000000000611e-11
5.509999999999999787e+00 7.312419999999999653e-11
5.530000000000000249e+00 7.117999999999999356e-11
5.549999999999999822e+00 6.918760000000000621e-11
5.570000000000000284e+00 6.715879999999999612e-11
5.589999999999999858e+00 6.510469999999999904e-11
5.610000000000000320e+00 6.303520000000000428e-11
5.629999999999999893e+00 6.095949999999999768e-11
5.650000000000000355e+00 5.888579999999999532e-11
5.669999999999999929e+00 5.682139999999999778e-11
5.690000000000000391e+00 5.477280000000000265e-11
5.709999999999999964e+00 5.274579999999999765e-11
5.730000000000000426e+00 5.074549999999999940e-11
5.750000000000000000e+00 4.877630000000000169e-11
5.769999999999999574e+00 4.684200000000000094e-11
5.790000000000000036e+00 4.494580000000000262e-11
5.809999999999999609e+00 4.309050000000000102e-11
5.830000000000000071e+00 4.127829999999999951e-11
5.849999999999999645e+00 3.951130000000000189e-11
5.870000000000000107e+00 3.779080000000000251e-11
5.889999999999999680e+00 3.611830000000000131e-11
5.910000000000000142e+00 3.449460000000000127e-11
5.929999999999999716e+00 3.292039999999999935e-11
5.950000000000000178e+00 3.139610000000000028e-11
5.969999999999999751e+00 2.992200000000000276e-11
5.990000000000000213e+00 2.849810000000000031e-11
6.009999999999999787e+00 2.712420000000000028e-11
6.030000000000000249e+00 2.580000000000000073e-11
6.049999999999999822e+00 2.452519999999999974e-11
6.070000000000000284e+00 2.329910000000000035e-11
6.089999999999999858e+00 2.212099999999999914e-11
6.110000000000000320e+00 2.099029999999999872e-11
6.129999999999999893e+00 1.990609999999999977e-11
6.150000000000000355e+00 1.886730000000000060e-11
6.169999999999999929e+00 1.787299999999999866e-11
6.190000000000000391e+00 1.692220000000000154e-11
6.209999999999999964e+00 1.601370000000000153e-11
6.230000000000000426e+00 1.514640000000000017e-11
6.250000000000000000e+00 1.431909999999999944e-11
6.269999999999999574e+00 1.353050000000000015e-11
6.290000000000000036e+00 1.277950000000000063e-11
6.309999999999999609e+00 1.206480000000000005e-11
6.330000000000000071e+00 1.138520000000000040e-11
6.349999999999999645e+00 1.073929999999999969e-11
6.370000000000000107e+00 1.012589999999999990e-11
6.389999999999999680e+00 9.543860000000000492e-12
6.410000000000000142e+00 8.991829999999999259e-12
6.429999999999999716e+00 8.468620000000000724e-12
6.450000000000000178e+00 7.973019999999999484e-12
6.469999999999999751e+00 7.503559999999999987e-12
6.490000000000000213e+00 7.059609999999999643e-12
6.509999999999999787e+00 6.639769999999999687e-12
6.530000000000000249e+00 6.242950000000000172e-12
6.549999999999999822e+00 5.868100000000000007e-12
6.570000000000000284e+00 5.514189999999999953e-12
6.589999999999999858e+00 5.180200000000000081e-12
6.610000000000000320e+00 4.865150000000000126e-12
6.629999999999999893e+00 4.568090000000000178e-12
6.650000000000000355e+00 4.288130000000000228e-12
6.669999999999999929e+00 4.024380000000000266e-12
6.690000000000000391e+00 3.775989999999999948e-12
6.709999999999999964e+00 3.542149999999999806e-12
6.730000000000000426e+00 3.322109999999999867e-12
6.750000000000000000e+00 3.115110000000000042e-12
6.769999999999999574e+00 2.920429999999999906e-12
6.790000000000000036e+00 2.737419999999999861e-12
6.809999999999999609e+00 2.565420000000000190e-12
6.830000000000000071e+00 2.403810000000000033e-12
6.849999999999999645e+00 2.252040000000000166e-12
6.870000000000000107e+00 2.109499999999999847e-12
6.889999999999999680e+00 1.975679999999999918e-12
6.910000000000000142e+00 1.850099999999999962e-12
6.929999999999999716e+00 1.732250000000000015e-12
6.950000000000000178e+00 1.621700000000000047e-12
6.969999999999999751e+00 1.518020000000000028e-12
6.990000000000000213e+00 1.420790000000000048e-12
7.009999999999999787e+00 1.329639999999999977e-12
7.030000000000000249e+00 1.244200000000000090e-12
7.049999999999999822e+00 1.164130000000000009e-12
7.070000000000000284e+00 1.089100000000000075e-12
7.089999999999999858e+00 1.018809999999999977e-12
7.110000000000000320e+00 9.529679999999999840e-13
7.129999999999999893e+00 8.913040000000000359e-13
7.150000000000000355e+00 8.335570000000000195e-13
7.169999999999999929e+00 7.794889999999999716e-13
7.190000000000000391e+00 7.288720000000000471e-13
7.209999999999999964e+00 6.814910000000000291e-13
7.230000000000000426e+00 6.371440000000000365e-13
7.259999999999999787e+00 5.956410000000000466e-13
7.280000000000000249e+00 5.568060000000000409e-13
7.299999999999999822e+00 5.204700000000000027e-13
7.320000000000000284e+00 4.864750000000000047e-13
7.339999999999999858e+00 4.546729999999999853e-13
7.360000000000000320e+00 4.249270000000000230e-13
7.379999999999999893e+00 3.971060000000000247e-13
7.400000000000000355e+00 3.710870000000000222e-13
7.419999999999999929e+00 3.467550000000000204e-13
7.440000000000000391e+00 3.240040000000000197e-13
7.459999999999999964e+00 3.027650000000000231e-13
7.480000000000000426e+00 2.828769999999999871e-13
7.500000000000000000e+00 2.642890000000000061e-13
7.519999999999999574e+00 2.469170000000000070e-13
7.540000000000000036e+00 2.306840000000000195e-13
7.559999999999999609e+00 2.155159999999999876e-13
7.580000000000000071e+00 2.013450000000000120e-13
7.599999999999999645e+00 1.881050000000000098e-13
7.620000000000000107e+00 1.757379999999999980e-13
7.639999999999999680e+00 1.641859999999999933e-13
7.660000000000000142e+00 1.533959999999999958e-13
7.679999999999999716e+00 1.433199999999999891e-13
7.700000000000000178e+00 1.339100000000000070e-13
7.719999999999999751e+00 1.251250000000000096e-13
7.740000000000000213e+00 1.169230000000000108e-13
7.759999999999999787e+00 1.092669999999999953e-13
7.780000000000000249e+00 1.021220000000000040e-13
7.799999999999999822e+00 9.545490000000000103e-14
7.820000000000000284e+00 8.923440000000000497e-14
7.839999999999999858e+00 8.343190000000000268e-14
7.860000000000000320e+00 7.802039999999999590e-14
7.879999999999999893e+00 7.297479999999999769e-14
7.900000000000000355e+00 6.827170000000000534e-14
7.919999999999999929e+00 6.388860000000000557e-14
7.940000000000000391e+00 5.980520000000000552e-14
7.959999999999999964e+00 5.600200000000000083e-14
7.980000000000000426e+00 5.246100000000000108e-14
8.000000000000000000e+00 4.916530000000000079e-14
8.019999999999999574e+00 4.609899999999999749e-14
8.039999999999999147e+00 4.324719999999999797e-14
8.060000000000000497e+00 4.059630000000000217e-14
8.080000000000000071e+00 3.813330000000000297e-14
8.099999999999999645e+00 3.584589999999999976e-14
8.119999999999999218e+00 3.372290000000000214e-14
8.140000000000000568e+00 3.175349999999999819e-14
8.160000000000000142e+00 2.992789999999999787e-14
8.179999999999999716e+00 2.823680000000000003e-14
8.199999999999999289e+00 2.667149999999999962e-14
8.220000000000000639e+00 2.522390000000000032e-14
8.240000000000000213e+00 2.388630000000000004e-14
8.259999999999999787e+00 2.265150000000000135e-14
8.279999999999999361e+00 2.151300000000000070e-14
8.300000000000000711e+00 2.046449999999999954e-14
8.320000000000000284e+00 1.949999999999999895e-14
8.339999999999999858e+00 1.861420000000000022e-14
8.359999999999999432e+00 1.780189999999999922e-14
8.380000000000000782e+00 1.705839999999999967e-14
8.400000000000000355e+00 1.637909999999999985e-14
8.419999999999999929e+00 1.575970000000000087e-14
8.439999999999999503e+00 1.519649999999999992e-14
8.460000000000000853e+00 1.468240000000000050e-14
8.480000000000000426e+00 1.422000000000000151e-14
8.500000000000000000e+00 1.380329999999999929e-14
