# log10(T) rate(cm^3/s)
# RecombRates
3.500000000000000000e+00 3.570760000000000024e-12
3.520000000000000018e+00 3.537259999999999813e-12
3.540000000000000036e+00 3.508280000000000072e-12
3.560000000000000053e+00 3.483409999999999997e-12
3.580000000000000071e+00 3.462199999999999929e-12
3.600000000000000089e+00 3.444209999999999922e-12
3.620000000000000107e+00 3.429010000000000148e-12
3.640000000000000124e+00 3.416180000000000091e-12
3.660000000000000142e+00 3.405289999999999922e-12
3.680000000000000160e+00 3.395960000000000001e-12
3.700000000000000178e+00 3.387800000000000165e-12
3.720000000000000195e+00 3.380450000000000202e-12
3.740000000000000213e+00 3.373589999999999966e-12
3.759999999999999787e+00 3.366900000000000123e-12
3.779999999999999805e+00 3.360100000000000193e-12
3.799999999999999822e+00 3.352929999999999931e-12
3.819999999999999840e+00 3.345159999999999854e-12
3.839999999999999858e+00 3.336590000000000023e-12
3.859999999999999876e+00 3.327039999999999927e-12
3.879999999999999893e+00 3.316369999999999934e-12
3.899999999999999911e+00 3.304490000000000190e-12
3.919999999999999929e+00 3.291159999999999882e-12
3.939999999999999947e+00 3.276459999999999955e-12
3.959999999999999964e+00 3.260319999999999986e-12
3.979999999999999982e+00 3.242699999999999905e-12
4.000000000000000000e+00 3.223619999999999950e-12
4.019999999999999574e+00 3.203140000000000021e-12
4.040000000000000036e+00 3.181390000000000038e-12
4.059999999999999609e+00 3.158550000000000107e-12
4.080000000000000071e+00 3.134890000000000186e-12
4.099999999999999645e+00 3.110810000000000151e-12
4.120000000000000107e+00 3.086819999999999968e-12
4.139999999999999680e+00 3.063610000000000110e-12
4.160000000000000142e+00 3.042100000000000134e-12
4.179999999999999716e+00 3.023439999999999888e-12
4.200000000000000178e+00 3.009069999999999819e-12
4.219999999999999751e+00 3.000790000000000182e-12
4.240000000000000213e+00 3.000759999999999827e-12
4.259999999999999787e+00 3.011569999999999859e-12
4.280000000000000249e+00 3.036229999999999877e-12
4.299999999999999822e+00 3.078229999999999900e-12
4.320000000000000284e+00 3.141480000000000060e-12
4.339999999999999858e+00 3.230319999999999911e-12
4.360000000000000320e+00 3.349460000000000149e-12
4.379999999999999893e+00 3.503889999999999926e-12
4.400000000000000355e+00 3.698780000000000119e-12
4.419999999999999929e+00 3.939340000000000055e-12
4.440000000000000391e+00 4.230680000000000306e-12
4.459999999999999964e+00 4.577600000000000205e-12
4.480000000000000426e+00 4.984460000000000351e-12
4.500000000000000000e+00 5.454990000000000367e-12
4.519999999999999574e+00 5.991860000000000280e-12
4.540000000000000036e+00 6.597070000000000283e-12
4.559999999999999609e+00 7.271309999999999639e-12
4.580000000000000071e+00 8.013939999999999677e-12
4.599999999999999645e+00 8.823099999999999432e-12
4.620000000000000107e+00 9.695490000000000322e-12
4.639999999999999680e+00 1.062659999999999998e-11
4.660000000000000142e+00 1.161050000000000026e-11
4.679999999999999716e+00 1.264010000000000064e-11
4.700000000000000178e+00 1.370749999999999990e-11
4.719999999999999751e+00 1.480350000000000089e-11
4.740000000000000213e+00 1.591870000000000082e-11
4.769999999999999574e+00 1.704290000000000041e-11
4.790000000000000036e+00 1.661789999999999930e-11
4.809999999999999609e+00 1.775570000000000117e-11
4.830000000000000071e+00 1.887119999999999980e-11
4.849999999999999645e+00 1.995439999999999987e-11
4.870000000000000107e+00 2.099580000000000067e-11
4.889999999999999680e+00 2.198649999999999886e-11
4.910000000000000142e+00 2.291850000000000014e-11
4.929999999999999716e+00 2.378460000000000025e-11
4.950000000000000178e+00 2.457860000000000030e-11
4.969999999999999751e+00 2.529539999999999983e-11
4.990000000000000213e+00 2.593080000000000094e-11
5.009999999999999787e+00 2.648170000000000095e-11
5.030000000000000249e+00 2.694599999999999928e-11
5.049999999999999822e+00 2.732270000000000029e-11
5.070000000000000284e+00 2.761149999999999882e-11
5.089999999999999858e+00 2.781340000000000021e-11
5.110000000000000320e+00 2.792980000000000161e-11
5.129999999999999893e+00 2.796309999999999906e-11
5.150000000000000355e+00 2.791619999999999933e-11
5.169999999999999929e+00 2.779260000000000014e-11
5.190000000000000391e+00 2.759630000000000026e-11
5.209999999999999964e+00 2.733160000000000039e-11
5.230000000000000426e+00 2.700329999999999905e-11
5.250000000000000000e+00 2.661630000000000080e-11
5.269999999999999574e+00 2.617560000000000006e-11
5.290000000000000036e+00 2.568640000000000009e-11
5.309999999999999609e+00 2.515369999999999853e-11
5.330000000000000071e+00 2.458280000000000144e-11
5.349999999999999645e+00 2.397860000000000044e-11
5.370000000000000107e+00 2.334600000000000008e-11
5.389999999999999680e+00 2.268969999999999933e-11
5.410000000000000142e+00 2.201430000000000082e-11
5.429999999999999716e+00 2.132399999999999921e-11
5.450000000000000178e+00 2.062279999999999973e-11
5.469999999999999751e+00 1.991460000000000160e-11
5.490000000000000213e+00 1.920279999999999972e-11
5.509999999999999787e+00 1.849059999999999959e-11
5.530000000000000249e+00 1.778110000000000064e-11
5.549999999999999822e+00 1.707690000000000128e-11
5.570000000000000284e+00 1.638040000000000076e-11
5.589999999999999858e+00 1.569379999999999923e-11
5.610000000000000320e+00 1.501889999999999854e-11
5.629999999999999893e+00 1.435750000000000057e-11
5.650000000000000355e+00 1.371089999999999967e-11
5.669999999999999929e+00 1.308030000000000032e-11
5.690000000000000391e+00 1.246679999999999934e-11
5.709999999999999964e+00 1.187110000000000018e-11
5.730000000000000426e+00 1.129399999999999933e-11
5.750000000000000000e+00 1.073580000000000036e-11
5.769999999999999574e+00 1.019699999999999946e-11
5.790000000000000036e+00 9.677760000000000154e-12
5.809999999999999609e+00 9.178130000000000596e-12
5.830000000000000071e+00 8.698099999999999863e-12
5.849999999999999645e+00 8.237560000000000697e-12
5.870000000000000107e+00 7.796329999999999355e-12
5.889999999999999680e+00 7.374130000000000609e-12
5.910000000000000142e+00 6.970629999999999753e-12
5.929999999999999716e+00 6.585420000000000024e-12
5.950000000000000178e+00 6.218110000000000048e-12
5.969999999999999751e+00 5.868200000000000380e-12
5.990000000000000213e+00 5.535200000000000083e-12
6.009999999999999787e+00 5.218590000000000284e-12
6.030000000000000249e+00 4.917830000000000261e-12
6.049999999999999822e+00 4.632380000000000099e-12
6.070000000000000284e+00 4.361650000000000100e-12
6.089999999999999858e+00 4.105090000000000232e-12
6.110000000000000320e+00 3.862140000000000343e-12
6.129999999999999893e+00 3.632230000000000165e-12
6.150000000000000355e+00 3.414799999999999949e-12
6.169999999999999929e+00 3.209310000000000186e-12
6.190000000000000391e+00 3.015210000000000033e-12
6.209999999999999964e+00 2.831979999999999813e-12
6.230000000000000426e+00 2.659099999999999847e-12
6.250000000000000000e+00 2.496069999999999885e-12
6.269999999999999574e+00 2.342409999999999911e-12
6.290000000000000036e+00 2.197639999999999913e-12
6.309999999999999609e+00 2.061309999999999827e-12
6.330000000000000071e+00 1.932980000000000110e-12
6.349999999999999645e+00 1.812230000000000044e-12
6.370000000000000107e+00 1.698659999999999953e-12
6.389999999999999680e+00 1.591880000000000079e-12
6.410000000000000142e+00 1.491520000000000091e-12
6.429999999999999716e+00 1.397230000000000096e-12
6.450000000000000178e+00 1.308660000000000000e-12
6.469999999999999751e+00 1.225499999999999978e-12
6.490000000000000213e+00 1.147430000000000090e-12
6.509999999999999787e+00 1.074179999999999973e-12
6.530000000000000249e+00 1.005440000000000005e-12
6.549999999999999822e+00 9.409730000000000942e-13
6.570000000000000284e+00 8.805199999999999680e-13
6.589999999999999858e+00 8.238450000000000100e-13
6.610000000000000320e+00 7.707229999999999866e-13
6.629999999999999893e+00 7.209419999999999991e-13
6.650000000000000355e+00 6.743029999999999794e-13
6.669999999999999929e+00 6.306150000000000347e-13
6.690000000000000391e+00 5.896979999999999577e-13
6.709999999999999964e+00 5.513830000000000346e-13
6.730000000000000426e+00 5.155130000000000067e-13
6.750000000000000000e+00 4.819359999999999772e-13
6.769999999999999574e+00 4.505089999999999941e-13
6.790000000000000036e+00 4.210999999999999929e-13
6.809999999999999609e+00 3.935840000000000120e-13
6.830000000000000071e+00 3.678429999999999907e-13
6.849999999999999645e+00 3.437639999999999779e-13
6.870000000000000107e+00 3.212439999999999891e-13
6.889999999999999680e+00 3.001849999999999977e-13
6.910000000000000142e+00 2.804939999999999860e-13
6.929999999999999716e+00 2.620840000000000170e-13
6.950000000000000178e+00 2.448750000000000042e-13
6.969999999999999751e+00 2.287890000000000059e-13
6.990000000000000213e+00 2.137560000000000032e-13
7.009999999999999787e+00 1.997069999999999991e-13
7.030000000000000249e+00 1.865799999999999986e-13
7.049999999999999822e+00 1.743159999999999966e-13
7.070000000000000284e+00 1.628590000000000031e-13
7.089999999999999858e+00 1.521569999999999897e-13
7.110000000000000320e+00 1.421609999999999937e-13
7.129999999999999893e+00 1.328259999999999886e-13
7.150000000000000355e+00 1.241089999999999915e-13
7.169999999999999929e+00 1.159700000000000097e-13
7.190000000000000391e+00 1.083710000000000059e-13
7.209999999999999964e+00 1.012780000000000053e-13
7.230000000000000426e+00 9.465660000000000381e-14
7.259999999999999787e+00 8.847689999999999532e-14
7.280000000000000249e+00 8.271010000000000267e-14
7.299999999999999822e+00 7.732909999999999510e-14
7.320000000000000284e+00 7.230850000000000183e-14
7.339999999999999858e+00 6.762489999999999491e-14
7.360000000000000320e+00 6.325620000000000263e-14
7.379999999999999893e+00 5.918179999999999780e-14
7.400000000000000355e+00 5.538210000000000037e-14
7.419999999999999929e+00 5.183930000000000283e-14
7.440000000000000391e+00 4.853649999999999973e-14
7.459999999999999964e+00 4.545780000000000119e-14
7.480000000000000426e+00 4.258840000000000233e-14
7.500000000000000000e+00 3.991450000000000123e-14
7.519999999999999574e+00 3.742220000000000133e-14
7.540000000000000036e+00 3.510139999999999723e-14
7.559999999999999609e+00 3.293990000000000184e-14
7.580000000000000071e+00 3.092719999999999973e-14
7.599999999999999645e+00 2.905339999999999993e-14
7.620000000000000107e+00 2.730929999999999906e-14
7.639999999999999680e+00 2.568620000000000154e-14
7.660000000000000142e+00 2.417609999999999934e-14
7.679999999999999716e+00 2.277159999999999950e-14
7.700000000000000178e+00 2.146559999999999918e-14
7.719999999999999751e+00 2.025150000000000022e-14
7.740000000000000213e+00 1.912309999999999868e-14
7.759999999999999787e+00 1.807490000000000031e-14
7.780000000000000249e+00 1.710130000000000042e-14
7.799999999999999822e+00 1.619740000000000086e-14
7.820000000000000284e+00 1.535859999999999993e-14
7.839999999999999858e+00 1.458029999999999910e-14
7.860000000000000320e+00 1.385869999999999936e-14
7.879999999999999893e+00 1.318979999999999987e-14
7.900000000000000355e+00 1.257020000000000061e-14
7.919999999999999929e+00 1.199640000000000064e-14
7.940000000000000391e+00 1.146540000000000049e-14
7.959999999999999964e+00 1.097420000000000071e-14
7.980000000000000426e+00 1.052019999999999925e-14
8.000000000000000000e+00 1.010080000000000036e-14
8.019999999999999574e+00 9.713649999999999585e-15
8.039999999999999147e+00 9.356540000000000375e-15
8.060000000000000497e+00 9.027409999999999699e-15
8.080000000000000071e+00 8.724339999999999293e-15
8.099999999999999645e+00 8.445490000000000688e-15
8.119999999999999218e+00 8.189230000000000740e-15
8.140000000000000568e+00 7.953950000000000593e-15
8.160000000000000142e+00 7.738189999999999627e-15
8.179999999999999716e+00 7.540589999999999730e-15
8.199999999999999289e+00 7.359859999999999651e-15
8.220000000000000639e+00 7.194810000000000647e-15
8.240000000000000213e+00 7.044329999999999827e-15
8.259999999999999787e+00 6.907360000000000285e-15
8.279999999999999361e+00 6.782950000000000301e-15
8.300000000000000711e+00 6.670170000000000073e-15
8.320000000000000284e+00 6.568180000000000165e-15
8.339999999999999858e+00 6.476180000000000248e-15
8.359999999999999432e+00 6.393440000000000012e-15
8.380000000000000782e+00 6.319269999999999834e-15
8.400000000000000355e+00 6.253019999999999990e-15
8.419999999999999929e+00 6.194100000000000208e-15
8.439999999999999503e+00 6.141929999999999994e-15
8.460000000000000853e+00 6.095989999999999882e-15
8.480000000000000426e+00 6.055800000000000308e-15
8.500000000000000000e+00 6.020899999999999682e-15
