# log10(T) rate(cm^3/s)
# RecombRates
3.500000000000000000e+00 4.557099999999999959e-11
3.520000000000000018e+00 4.423810000000000231e-11
3.540000000000000036e+00 4.294249999999999802e-11
3.560000000000000053e+00 4.168309999999999795e-11
3.580000000000000071e+00 4.045899999999999956e-11
3.600000000000000089e+00 3.926910000000000117e-11
3.620000000000000107e+00 3.811269999999999935e-11
3.640000000000000124e+00 3.698869999999999889e-11
3.660000000000000142e+00 3.589629999999999680e-11
3.680000000000000160e+00 3.483470000000000302e-11
3.700000000000000178e+00 3.380290000000000251e-11
3.720000000000000195e+00 3.280019999999999831e-11
3.740000000000000213e+00 3.182580000000000036e-11
3.759999999999999787e+00 3.087899999999999878e-11
3.779999999999999805e+00 2.995889999999999748e-11
3.799999999999999822e+00 2.906489999999999907e-11
3.819999999999999840e+00 2.819610000000000099e-11
3.839999999999999858e+00 2.735209999999999853e-11
3.859999999999999876e+00 2.653199999999999883e-11
3.879999999999999893e+00 2.573520000000000125e-11
3.899999999999999911e+00 2.496109999999999872e-11
3.919999999999999929e+00 2.420900000000000075e-11
3.939999999999999947e+00 2.347839999999999980e-11
3.959999999999999964e+00 2.276869999999999849e-11
3.979999999999999982e+00 2.207919999999999987e-11
4.000000000000000000e+00 2.140949999999999920e-11
4.019999999999999574e+00 2.075899999999999909e-11
4.040000000000000036e+00 2.012709999999999892e-11
4.059999999999999609e+00 1.951340000000000044e-11
4.080000000000000071e+00 1.891729999999999978e-11
4.099999999999999645e+00 1.833839999999999868e-11
4.120000000000000107e+00 1.777619999999999932e-11
4.139999999999999680e+00 1.723020000000000064e-11
4.160000000000000142e+00 1.670000000000000114e-11
4.179999999999999716e+00 1.618509999999999977e-11
4.200000000000000178e+00 1.568520000000000106e-11
4.219999999999999751e+00 1.519970000000000116e-11
4.240000000000000213e+00 1.472840000000000094e-11
4.259999999999999787e+00 1.427079999999999933e-11
4.280000000000000249e+00 1.382649999999999970e-11
4.299999999999999822e+00 1.339510000000000055e-11
4.320000000000000284e+00 1.297639999999999952e-11
4.339999999999999858e+00 1.256990000000000039e-11
4.360000000000000320e+00 1.217529999999999963e-11
4.379999999999999893e+00 1.179230000000000015e-11
4.400000000000000355e+00 1.142060000000000003e-11
4.419999999999999929e+00 1.105969999999999982e-11
4.440000000000000391e+00 1.070959999999999952e-11
4.459999999999999964e+00 1.036970000000000013e-11
4.480000000000000426e+00 1.003990000000000047e-11
4.500000000000000000e+00 9.719859999999999742e-12
4.519999999999999574e+00 9.409299999999999499e-12
4.540000000000000036e+00 9.107969999999999206e-12
4.559999999999999609e+00 8.815590000000000406e-12
4.580000000000000071e+00 8.531940000000000499e-12
4.599999999999999645e+00 8.256739999999999410e-12
4.620000000000000107e+00 7.989769999999999387e-12
4.639999999999999680e+00 7.730800000000000138e-12
4.660000000000000142e+00 7.479590000000000444e-12
4.679999999999999716e+00 7.235930000000000248e-12
4.700000000000000178e+00 6.999600000000000184e-12
4.719999999999999751e+00 6.770409999999999623e-12
4.740000000000000213e+00 6.548129999999999887e-12
4.769999999999999574e+00 6.332579999999999660e-12
4.790000000000000036e+00 6.123569999999999927e-12
4.809999999999999609e+00 5.920910000000000062e-12
4.830000000000000071e+00 5.724410000000000243e-12
4.849999999999999645e+00 5.533910000000000196e-12
4.870000000000000107e+00 5.349230000000000220e-12
4.889999999999999680e+00 5.170210000000000040e-12
4.910000000000000142e+00 4.996680000000000071e-12
4.929999999999999716e+00 4.828490000000000159e-12
4.950000000000000178e+00 4.665480000000000028e-12
4.969999999999999751e+00 4.507509999999999642e-12
4.990000000000000213e+00 4.354420000000000342e-12
5.009999999999999787e+00 4.206089999999999903e-12
5.030000000000000249e+00 4.062359999999999666e-12
5.049999999999999822e+00 3.923119999999999948e-12
5.070000000000000284e+00 3.788219999999999786e-12
5.089999999999999858e+00 3.657550000000000303e-12
5.110000000000000320e+00 3.530979999999999965e-12
5.129999999999999893e+00 3.408390000000000182e-12
5.150000000000000355e+00 3.289670000000000057e-12
5.169999999999999929e+00 3.174700000000000195e-12
5.190000000000000391e+00 3.063379999999999817e-12
5.209999999999999964e+00 2.955600000000000048e-12
5.230000000000000426e+00 2.851249999999999993e-12
5.250000000000000000e+00 2.750239999999999800e-12
5.269999999999999574e+00 2.652469999999999905e-12
5.290000000000000036e+00 2.557839999999999933e-12
5.309999999999999609e+00 2.466270000000000153e-12
5.330000000000000071e+00 2.377650000000000072e-12
5.349999999999999645e+00 2.291910000000000076e-12
5.370000000000000107e+00 2.208959999999999909e-12
5.389999999999999680e+00 2.128710000000000125e-12
5.410000000000000142e+00 2.051100000000000015e-12
5.429999999999999716e+00 1.976030000000000012e-12
5.450000000000000178e+00 1.903439999999999814e-12
5.469999999999999751e+00 1.833259999999999804e-12
5.490000000000000213e+00 1.765290000000000044e-12
5.509999999999999787e+00 1.699710000000000035e-12
5.530000000000000249e+00 1.636370000000000024e-12
5.549999999999999822e+00 1.575150000000000008e-12
5.570000000000000284e+00 1.515990000000000086e-12
5.589999999999999858e+00 1.458840000000000073e-12
5.610000000000000320e+00 1.403649999999999982e-12
5.629999999999999893e+00 1.350410000000000099e-12
5.650000000000000355e+00 1.299109999999999904e-12
5.669999999999999929e+00 1.249740000000000085e-12
5.690000000000000391e+00 1.202350000000000021e-12
5.709999999999999964e+00 1.156979999999999983e-12
5.730000000000000426e+00 1.113709999999999906e-12
5.750000000000000000e+00 1.072659999999999995e-12
5.769999999999999574e+00 1.033980000000000003e-12
5.790000000000000036e+00 9.978500000000000345e-13
5.809999999999999609e+00 9.644970000000000654e-13
5.830000000000000071e+00 9.341789999999999921e-13
5.849999999999999645e+00 9.071860000000000080e-13
5.870000000000000107e+00 8.838299999999999811e-13
5.889999999999999680e+00 8.644309999999999544e-13
5.910000000000000142e+00 8.493129999999999577e-13
5.929999999999999716e+00 8.387809999999999577e-13
5.950000000000000178e+00 8.331139999999999577e-13
5.969999999999999751e+00 8.325439999999999914e-13
5.990000000000000213e+00 8.372420000000000185e-13
6.009999999999999787e+00 8.473119999999999948e-13
6.030000000000000249e+00 8.627689999999999965e-13
6.049999999999999822e+00 8.835399999999999894e-13
6.070000000000000284e+00 9.094559999999999570e-13
6.089999999999999858e+00 9.402509999999999282e-13
6.110000000000000320e+00 9.755620000000000794e-13
6.129999999999999893e+00 1.014939999999999914e-12
6.150000000000000355e+00 1.057860000000000099e-12
6.169999999999999929e+00 1.103720000000000067e-12
6.190000000000000391e+00 1.151859999999999900e-12
6.209999999999999964e+00 1.201600000000000050e-12
6.230000000000000426e+00 1.252220000000000091e-12
6.250000000000000000e+00 1.303000000000000001e-12
6.269999999999999574e+00 1.353210000000000047e-12
6.290000000000000036e+00 1.402170000000000073e-12
6.309999999999999609e+00 1.449230000000000076e-12
6.330000000000000071e+00 1.493770000000000005e-12
6.349999999999999645e+00 1.535229999999999912e-12
6.370000000000000107e+00 1.573140000000000100e-12
6.389999999999999680e+00 1.607069999999999937e-12
6.410000000000000142e+00 1.636689999999999966e-12
6.429999999999999716e+00 1.661719999999999911e-12
6.450000000000000178e+00 1.681969999999999951e-12
6.469999999999999751e+00 1.697030000000000091e-12
6.490000000000000213e+00 1.707349999999999990e-12
6.509999999999999787e+00 1.712699999999999962e-12
6.530000000000000249e+00 1.713159999999999942e-12
6.549999999999999822e+00 1.708880000000000085e-12
6.570000000000000284e+00 1.700029999999999977e-12
6.589999999999999858e+00 1.686809999999999958e-12
6.610000000000000320e+00 1.669469999999999954e-12
6.629999999999999893e+00 1.648290000000000038e-12
6.650000000000000355e+00 1.623539999999999966e-12
6.669999999999999929e+00 1.595540000000000086e-12
6.690000000000000391e+00 1.564589999999999900e-12
6.709999999999999964e+00 1.531009999999999956e-12
6.730000000000000426e+00 1.495129999999999911e-12
6.750000000000000000e+00 1.457250000000000076e-12
6.769999999999999574e+00 1.417680000000000074e-12
6.790000000000000036e+00 1.376710000000000098e-12
6.809999999999999609e+00 1.334629999999999938e-12
6.830000000000000071e+00 1.291709999999999956e-12
6.849999999999999645e+00 1.248189999999999955e-12
6.870000000000000107e+00 1.204320000000000062e-12
6.889999999999999680e+00 1.160309999999999930e-12
6.910000000000000142e+00 1.116359999999999900e-12
6.929999999999999716e+00 1.072650000000000079e-12
6.950000000000000178e+00 1.029350000000000052e-12
6.969999999999999751e+00 9.865940000000000267e-13
6.990000000000000213e+00 9.445169999999999829e-13
7.009999999999999787e+00 9.032290000000000078e-13
7.030000000000000249e+00 8.628310000000000420e-13
7.049999999999999822e+00 8.234030000000000206e-13
7.070000000000000284e+00 7.850130000000000196e-13
7.089999999999999858e+00 7.477189999999999970e-13
7.110000000000000320e+00 7.115659999999999792e-13
7.129999999999999893e+00 6.765870000000000331e-13
7.150000000000000355e+00 6.428050000000000060e-13
7.169999999999999929e+00 6.102370000000000179e-13
7.190000000000000391e+00 5.788899999999999698e-13
7.209999999999999964e+00 5.487660000000000065e-13
7.230000000000000426e+00 5.198559999999999813e-13
7.259999999999999787e+00 4.921520000000000218e-13
7.280000000000000249e+00 4.656360000000000366e-13
7.299999999999999822e+00 4.402890000000000134e-13
7.320000000000000284e+00 4.160860000000000105e-13
7.339999999999999858e+00 3.930019999999999848e-13
7.360000000000000320e+00 3.710080000000000081e-13
7.379999999999999893e+00 3.500719999999999850e-13
7.400000000000000355e+00 3.301620000000000224e-13
7.419999999999999929e+00 3.112439999999999812e-13
7.440000000000000391e+00 2.932860000000000187e-13
7.459999999999999964e+00 2.762829999999999750e-13
7.480000000000000426e+00 2.601349999999999816e-13
7.500000000000000000e+00 2.448430000000000100e-13
7.519999999999999574e+00 2.303730000000000222e-13
7.540000000000000036e+00 2.166900000000000087e-13
7.559999999999999609e+00 2.037590000000000106e-13
7.580000000000000071e+00 1.915459999999999898e-13
7.599999999999999645e+00 1.800180000000000060e-13
7.620000000000000107e+00 1.691429999999999892e-13
7.639999999999999680e+00 1.588879999999999991e-13
7.660000000000000142e+00 1.492240000000000061e-13
7.679999999999999716e+00 1.401210000000000095e-13
7.700000000000000178e+00 1.315510000000000016e-13
7.719999999999999751e+00 1.234860000000000001e-13
7.740000000000000213e+00 1.158999999999999908e-13
7.759999999999999787e+00 1.087690000000000033e-13
7.780000000000000249e+00 1.020679999999999948e-13
7.799999999999999822e+00 9.577319999999999675e-14
7.820000000000000284e+00 8.986389999999999991e-14
7.839999999999999858e+00 8.431860000000000031e-14
7.860000000000000320e+00 7.911739999999999617e-14
7.879999999999999893e+00 7.424100000000000395e-14
7.900000000000000355e+00 6.967139999999999533e-14
7.919999999999999929e+00 6.539139999999999993e-14
7.940000000000000391e+00 6.138449999999999708e-14
7.959999999999999964e+00 5.763499999999999877e-14
7.980000000000000426e+00 5.412830000000000196e-14
8.000000000000000000e+00 5.085030000000000194e-14
8.019999999999999574e+00 4.778770000000000144e-14
8.039999999999999147e+00 4.492789999999999706e-14
8.060000000000000497e+00 4.225909999999999913e-14
8.080000000000000071e+00 3.976999999999999740e-14
8.099999999999999645e+00 3.744979999999999886e-14
8.119999999999999218e+00 3.528870000000000088e-14
8.140000000000000568e+00 3.327700000000000174e-14
8.160000000000000142e+00 3.140569999999999991e-14
8.179999999999999716e+00 2.966650000000000036e-14
8.199999999999999289e+00 2.805130000000000047e-14
8.220000000000000639e+00 2.655260000000000000e-14
8.240000000000000213e+00 2.516340000000000022e-14
8.259999999999999787e+00 2.387680000000000018e-14
8.279999999999999361e+00 2.268670000000000003e-14
8.300000000000000711e+00 2.158699999999999993e-14
8.320000000000000284e+00 2.057219999999999930e-14
8.339999999999999858e+00 1.963699999999999940e-14
8.359999999999999432e+00 1.877649999999999893e-14
8.380000000000000782e+00 1.798590000000000064e-14
8.400000000000000355e+00 1.726100000000000024e-14
8.419999999999999929e+00 1.659759999999999975e-14
8.439999999999999503e+00 1.599169999999999991e-14
8.460000000000000853e+00 1.543650000000000067e-14
8.480000000000000426e+00 1.493469999999999870e-14
8.500000000000000000e+00 1.448009999999999956e-14
