# log10(T) rate(cm^3/s)
# RecombRates
3.500000000000000000e+00 7.871960000000000235e-11
3.520000000000000018e+00 7.652270000000000552e-11
3.540000000000000036e+00 7.438519999999999610e-11
3.560000000000000053e+00 7.230560000000000000e-11
3.580000000000000071e+00 7.028240000000000434e-11
3.600000000000000089e+00 6.831400000000000315e-11
3.620000000000000107e+00 6.639900000000000253e-11
3.640000000000000124e+00 6.453599999999999562e-11
3.660000000000000142e+00 6.272360000000000145e-11
3.680000000000000160e+00 6.096050000000000626e-11
3.700000000000000178e+00 5.924530000000000323e-11
3.720000000000000195e+00 5.757679999999999757e-11
3.740000000000000213e+00 5.595380000000000095e-11
3.759999999999999787e+00 5.437499999999999964e-11
3.779999999999999805e+00 5.283929999999999842e-11
3.799999999999999822e+00 5.134550000000000250e-11
3.819999999999999840e+00 4.989249999999999728e-11
3.839999999999999858e+00 4.847930000000000003e-11
3.859999999999999876e+00 4.710470000000000304e-11
3.879999999999999893e+00 4.576779999999999730e-11
3.899999999999999911e+00 4.446750000000000051e-11
3.919999999999999929e+00 4.320279999999999762e-11
3.939999999999999947e+00 4.197279999999999903e-11
3.959999999999999964e+00 4.077660000000000217e-11
3.979999999999999982e+00 3.961329999999999803e-11
4.000000000000000000e+00 3.848199999999999698e-11
4.019999999999999574e+00 3.738180000000000294e-11
4.040000000000000036e+00 3.631199999999999956e-11
4.059999999999999609e+00 3.527159999999999765e-11
4.080000000000000071e+00 3.425990000000000026e-11
4.099999999999999645e+00 3.327619999999999749e-11
4.120000000000000107e+00 3.231959999999999973e-11
4.139999999999999680e+00 3.138950000000000312e-11
4.160000000000000142e+00 3.048519999999999777e-11
4.179999999999999716e+00 2.960590000000000010e-11
4.200000000000000178e+00 2.875099999999999977e-11
4.219999999999999751e+00 2.791979999999999984e-11
4.240000000000000213e+00 2.711169999999999968e-11
4.259999999999999787e+00 2.632609999999999866e-11
4.280000000000000249e+00 2.556229999999999984e-11
4.299999999999999822e+00 2.481979999999999891e-11
4.320000000000000284e+00 2.409789999999999893e-11
4.339999999999999858e+00 2.339630000000000119e-11
4.360000000000000320e+00 2.271419999999999948e-11
4.379999999999999893e+00 2.205109999999999921e-11
4.400000000000000355e+00 2.140669999999999844e-11
4.419999999999999929e+00 2.078020000000000066e-11
4.440000000000000391e+00 2.017130000000000070e-11
4.459999999999999964e+00 1.957950000000000073e-11
4.480000000000000426e+00 1.900429999999999971e-11
4.500000000000000000e+00 1.844529999999999937e-11
4.519999999999999574e+00 1.790199999999999864e-11
4.540000000000000036e+00 1.737399999999999928e-11
4.559999999999999609e+00 1.686089999999999978e-11
4.580000000000000071e+00 1.636219999999999908e-11
4.599999999999999645e+00 1.587759999999999850e-11
4.620000000000000107e+00 1.540679999999999934e-11
4.639999999999999680e+00 1.494920000000000096e-11
4.660000000000000142e+00 1.450459999999999941e-11
4.679999999999999716e+00 1.407269999999999920e-11
4.700000000000000178e+00 1.365289999999999971e-11
4.719999999999999751e+00 1.324519999999999934e-11
4.740000000000000213e+00 1.284900000000000068e-11
4.769999999999999574e+00 1.246400000000000020e-11
4.790000000000000036e+00 1.209009999999999995e-11
4.809999999999999609e+00 1.172680000000000048e-11
4.830000000000000071e+00 1.137389999999999943e-11
4.849999999999999645e+00 1.103109999999999972e-11
4.870000000000000107e+00 1.069820000000000060e-11
4.889999999999999680e+00 1.037469999999999940e-11
4.910000000000000142e+00 1.006059999999999936e-11
4.929999999999999716e+00 9.755430000000000569e-12
4.950000000000000178e+00 9.459070000000000003e-12
4.969999999999999751e+00 9.171259999999999435e-12
4.990000000000000213e+00 8.891729999999999716e-12
5.009999999999999787e+00 8.620280000000000100e-12
5.030000000000000249e+00 8.356660000000000058e-12
5.049999999999999822e+00 8.100690000000000695e-12
5.070000000000000284e+00 7.852119999999999867e-12
5.089999999999999858e+00 7.610759999999999369e-12
5.110000000000000320e+00 7.376419999999999380e-12
5.129999999999999893e+00 7.148889999999999844e-12
5.150000000000000355e+00 6.927980000000000132e-12
5.169999999999999929e+00 6.713519999999999852e-12
5.190000000000000391e+00 6.505309999999999874e-12
5.209999999999999964e+00 6.303189999999999923e-12
5.230000000000000426e+00 6.106989999999999608e-12
5.250000000000000000e+00 5.916540000000000152e-12
5.269999999999999574e+00 5.731679999999999666e-12
5.290000000000000036e+00 5.552250000000000298e-12
5.309999999999999609e+00 5.378110000000000396e-12
5.330000000000000071e+00 5.209090000000000375e-12
5.349999999999999645e+00 5.045069999999999626e-12
5.370000000000000107e+00 4.885890000000000298e-12
5.389999999999999680e+00 4.731420000000000048e-12
5.410000000000000142e+00 4.581539999999999883e-12
5.429999999999999716e+00 4.436109999999999765e-12
5.450000000000000178e+00 4.294989999999999655e-12
5.469999999999999751e+00 4.158079999999999989e-12
5.490000000000000213e+00 4.025250000000000039e-12
5.509999999999999787e+00 3.896390000000000122e-12
5.530000000000000249e+00 3.771389999999999746e-12
5.549999999999999822e+00 3.650129999999999917e-12
5.570000000000000284e+00 3.532509999999999859e-12
5.589999999999999858e+00 3.418419999999999887e-12
5.610000000000000320e+00 3.307770000000000152e-12
5.629999999999999893e+00 3.200459999999999875e-12
5.650000000000000355e+00 3.096389999999999895e-12
5.669999999999999929e+00 2.995469999999999958e-12
5.690000000000000391e+00 2.897600000000000093e-12
5.709999999999999964e+00 2.802709999999999879e-12
5.730000000000000426e+00 2.710700000000000153e-12
5.750000000000000000e+00 2.621500000000000088e-12
5.769999999999999574e+00 2.535019999999999835e-12
5.790000000000000036e+00 2.451190000000000181e-12
5.809999999999999609e+00 2.369920000000000064e-12
5.830000000000000071e+00 2.291149999999999986e-12
5.849999999999999645e+00 2.214799999999999812e-12
5.870000000000000107e+00 2.140799999999999925e-12
5.889999999999999680e+00 2.069090000000000022e-12
5.910000000000000142e+00 1.999600000000000083e-12
5.929999999999999716e+00 1.932249999999999971e-12
5.950000000000000178e+00 1.867000000000000022e-12
5.969999999999999751e+00 1.803780000000000014e-12
5.990000000000000213e+00 1.742530000000000048e-12
6.009999999999999787e+00 1.683199999999999936e-12
6.030000000000000249e+00 1.625720000000000064e-12
6.049999999999999822e+00 1.570040000000000043e-12
6.070000000000000284e+00 1.516120000000000006e-12
6.089999999999999858e+00 1.463889999999999935e-12
6.110000000000000320e+00 1.413320000000000081e-12
6.129999999999999893e+00 1.364340000000000021e-12
6.150000000000000355e+00 1.316920000000000007e-12
6.169999999999999929e+00 1.270999999999999936e-12
6.190000000000000391e+00 1.226550000000000060e-12
6.209999999999999964e+00 1.183519999999999990e-12
6.230000000000000426e+00 1.141859999999999943e-12
6.250000000000000000e+00 1.101550000000000087e-12
6.269999999999999574e+00 1.062529999999999916e-12
6.290000000000000036e+00 1.024770000000000085e-12
6.309999999999999609e+00 9.882250000000000629e-13
6.330000000000000071e+00 9.528689999999999861e-13
6.349999999999999645e+00 9.186619999999999886e-13
6.370000000000000107e+00 8.855700000000000323e-13
6.389999999999999680e+00 8.535580000000000067e-13
6.410000000000000142e+00 8.225959999999999615e-13
6.429999999999999716e+00 7.926510000000000321e-13
6.450000000000000178e+00 7.636910000000000222e-13
6.469999999999999751e+00 7.356880000000000253e-13
6.490000000000000213e+00 7.086140000000000338e-13
6.509999999999999787e+00 6.824389999999999964e-13
6.530000000000000249e+00 6.571350000000000065e-13
6.549999999999999822e+00 6.326769999999999708e-13
6.570000000000000284e+00 6.090399999999999979e-13
6.589999999999999858e+00 5.861969999999999507e-13
6.610000000000000320e+00 5.641249999999999818e-13
6.629999999999999893e+00 5.427989999999999977e-13
6.650000000000000355e+00 5.221970000000000215e-13
6.669999999999999929e+00 5.022969999999999750e-13
6.690000000000000391e+00 4.830769999999999822e-13
6.709999999999999964e+00 4.645160000000000373e-13
6.730000000000000426e+00 4.465929999999999834e-13
6.750000000000000000e+00 4.292899999999999812e-13
6.769999999999999574e+00 4.125850000000000035e-13
6.790000000000000036e+00 3.964609999999999805e-13
6.809999999999999609e+00 3.809009999999999943e-13
6.830000000000000071e+00 3.658850000000000106e-13
6.849999999999999645e+00 3.513969999999999819e-13
6.870000000000000107e+00 3.374199999999999900e-13
6.889999999999999680e+00 3.239390000000000094e-13
6.910000000000000142e+00 3.109370000000000210e-13
6.929999999999999716e+00 2.984000000000000210e-13
6.950000000000000178e+00 2.863120000000000123e-13
6.969999999999999751e+00 2.746600000000000131e-13
6.990000000000000213e+00 2.634289999999999976e-13
7.009999999999999787e+00 2.526059999999999841e-13
7.030000000000000249e+00 2.421779999999999905e-13
7.049999999999999822e+00 2.321330000000000066e-13
7.070000000000000284e+00 2.224570000000000032e-13
7.089999999999999858e+00 2.131389999999999918e-13
7.110000000000000320e+00 2.041680000000000091e-13
7.129999999999999893e+00 1.955319999999999942e-13
7.150000000000000355e+00 1.872200000000000090e-13
7.169999999999999929e+00 1.792220000000000112e-13
7.190000000000000391e+00 1.715270000000000122e-13
7.209999999999999964e+00 1.641249999999999949e-13
7.230000000000000426e+00 1.570069999999999892e-13
7.259999999999999787e+00 1.501640000000000001e-13
7.280000000000000249e+00 1.435860000000000104e-13
7.299999999999999822e+00 1.372639999999999996e-13
7.320000000000000284e+00 1.311909999999999910e-13
7.339999999999999858e+00 1.253559999999999962e-13
7.360000000000000320e+00 1.197540000000000065e-13
7.379999999999999893e+00 1.143750000000000049e-13
7.400000000000000355e+00 1.092129999999999987e-13
7.419999999999999929e+00 1.042590000000000054e-13
7.440000000000000391e+00 9.950760000000000001e-14
7.459999999999999964e+00 9.495079999999999664e-14
7.480000000000000426e+00 9.058219999999999898e-14
7.500000000000000000e+00 8.639539999999999808e-14
7.519999999999999574e+00 8.238419999999999948e-14
7.540000000000000036e+00 7.854239999999999610e-14
7.559999999999999609e+00 7.486399999999999533e-14
7.580000000000000071e+00 7.134359999999999753e-14
7.599999999999999645e+00 6.797539999999999932e-14
7.620000000000000107e+00 6.475429999999999753e-14
7.639999999999999680e+00 6.167479999999999788e-14
7.660000000000000142e+00 5.873210000000000629e-14
7.679999999999999716e+00 5.592120000000000157e-14
7.700000000000000178e+00 5.323749999999999782e-14
7.719999999999999751e+00 5.067640000000000281e-14
7.740000000000000213e+00 4.823339999999999999e-14
7.759999999999999787e+00 4.590430000000000086e-14
7.780000000000000249e+00 4.368489999999999796e-14
7.799999999999999822e+00 4.157119999999999835e-14
7.820000000000000284e+00 3.955939999999999828e-14
7.839999999999999858e+00 3.764549999999999847e-14
7.860000000000000320e+00 3.582609999999999893e-14
7.879999999999999893e+00 3.409759999999999776e-14
7.900000000000000355e+00 3.245650000000000034e-14
7.919999999999999929e+00 3.089960000000000220e-14
7.940000000000000391e+00 2.942369999999999886e-14
7.959999999999999964e+00 2.802559999999999849e-14
7.980000000000000426e+00 2.670239999999999939e-14
8.000000000000000000e+00 2.545119999999999989e-14
8.019999999999999574e+00 2.426910000000000145e-14
8.039999999999999147e+00 2.315359999999999979e-14
8.060000000000000497e+00 2.210190000000000047e-14
8.080000000000000071e+00 2.111149999999999920e-14
8.099999999999999645e+00 2.017999999999999896e-14
8.119999999999999218e+00 1.930510000000000046e-14
8.140000000000000568e+00 1.848429999999999943e-14
8.160000000000000142e+00 1.771549999999999845e-14
8.179999999999999716e+00 1.699670000000000105e-14
8.199999999999999289e+00 1.632559999999999849e-14
8.220000000000000639e+00 1.570030000000000152e-14
8.240000000000000213e+00 1.511899999999999975e-14
8.259999999999999787e+00 1.457959999999999891e-14
8.279999999999999361e+00 1.408049999999999993e-14
8.300000000000000711e+00 1.361990000000000030e-14
8.320000000000000284e+00 1.319610000000000000e-14
8.339999999999999858e+00 1.280740000000000060e-14
8.359999999999999432e+00 1.245240000000000016e-14
8.380000000000000782e+00 1.212949999999999959e-14
8.400000000000000355e+00 1.183730000000000008e-14
8.419999999999999929e+00 1.157430000000000035e-14
8.439999999999999503e+00 1.133930000000000027e-14
8.460000000000000853e+00 1.113080000000000014e-14
8.480000000000000426e+00 1.094770000000000077e-14
8.500000000000000000e+00 1.078869999999999957e-14
