# log10(T) rate(cm^3/s)
# RecombRates
3.500000000000000000e+00 1.058929999999999956e-10
3.520000000000000018e+00 1.029530000000000037e-10
3.540000000000000036e+00 1.000909999999999959e-10
3.560000000000000053e+00 9.730679999999999892e-11
3.580000000000000071e+00 9.459759999999999912e-11
3.600000000000000089e+00 9.196160000000000429e-11
3.620000000000000107e+00 8.939690000000000331e-11
3.640000000000000124e+00 8.690150000000000488e-11
3.660000000000000142e+00 8.447360000000000389e-11
3.680000000000000160e+00 8.211150000000000126e-11
3.700000000000000178e+00 7.981340000000000482e-11
3.720000000000000195e+00 7.757760000000000257e-11
3.740000000000000213e+00 7.540250000000000147e-11
3.759999999999999787e+00 7.328640000000000244e-11
3.779999999999999805e+00 7.122789999999999864e-11
3.799999999999999822e+00 6.922530000000000392e-11
3.819999999999999840e+00 6.727719999999999852e-11
3.839999999999999858e+00 6.538209999999999542e-11
3.859999999999999876e+00 6.353869999999999380e-11
3.879999999999999893e+00 6.174549999999999373e-11
3.899999999999999911e+00 6.000130000000000041e-11
3.919999999999999929e+00 5.830460000000000099e-11
3.939999999999999947e+00 5.665439999999999980e-11
3.959999999999999964e+00 5.504919999999999691e-11
3.979999999999999982e+00 5.348800000000000312e-11
4.000000000000000000e+00 5.196949999999999823e-11
4.019999999999999574e+00 5.049269999999999951e-11
4.040000000000000036e+00 4.905629999999999969e-11
4.059999999999999609e+00 4.765940000000000269e-11
4.080000000000000071e+00 4.630080000000000078e-11
4.099999999999999645e+00 4.497959999999999789e-11
4.120000000000000107e+00 4.369469999999999879e-11
4.139999999999999680e+00 4.244520000000000093e-11
4.160000000000000142e+00 4.123020000000000177e-11
4.179999999999999716e+00 4.004859999999999961e-11
4.200000000000000178e+00 3.889959999999999795e-11
4.219999999999999751e+00 3.778240000000000024e-11
4.240000000000000213e+00 3.669599999999999793e-11
4.259999999999999787e+00 3.563970000000000050e-11
4.280000000000000249e+00 3.461269999999999851e-11
4.299999999999999822e+00 3.361410000000000234e-11
4.320000000000000284e+00 3.264320000000000211e-11
4.339999999999999858e+00 3.169920000000000128e-11
4.360000000000000320e+00 3.078150000000000248e-11
4.379999999999999893e+00 2.988930000000000271e-11
4.400000000000000355e+00 2.902189999999999855e-11
4.419999999999999929e+00 2.817859999999999950e-11
4.440000000000000391e+00 2.735890000000000129e-11
4.459999999999999964e+00 2.656200000000000092e-11
4.480000000000000426e+00 2.578740000000000056e-11
4.500000000000000000e+00 2.503449999999999960e-11
4.519999999999999574e+00 2.430260000000000108e-11
4.540000000000000036e+00 2.359120000000000069e-11
4.559999999999999609e+00 2.289980000000000063e-11
4.580000000000000071e+00 2.222770000000000070e-11
4.599999999999999645e+00 2.157449999999999940e-11
4.620000000000000107e+00 2.093969999999999892e-11
4.639999999999999680e+00 2.032269999999999862e-11
4.660000000000000142e+00 1.972319999999999981e-11
4.679999999999999716e+00 1.914049999999999907e-11
4.700000000000000178e+00 1.857420000000000137e-11
4.719999999999999751e+00 1.802400000000000156e-11
4.740000000000000213e+00 1.748929999999999900e-11
4.769999999999999574e+00 1.696969999999999867e-11
4.790000000000000036e+00 1.646489999999999864e-11
4.809999999999999609e+00 1.597440000000000108e-11
4.830000000000000071e+00 1.549780000000000127e-11
4.849999999999999645e+00 1.503470000000000095e-11
4.870000000000000107e+00 1.458490000000000099e-11
4.889999999999999680e+00 1.414780000000000076e-11
4.910000000000000142e+00 1.372319999999999952e-11
4.929999999999999716e+00 1.331070000000000063e-11
4.950000000000000178e+00 1.291000000000000053e-11
4.969999999999999751e+00 1.252080000000000053e-11
4.990000000000000213e+00 1.214270000000000076e-11
5.009999999999999787e+00 1.177550000000000046e-11
5.030000000000000249e+00 1.141879999999999977e-11
5.049999999999999822e+00 1.107229999999999999e-11
5.070000000000000284e+00 1.073580000000000036e-11
5.089999999999999858e+00 1.040910000000000015e-11
5.110000000000000320e+00 1.009169999999999990e-11
5.129999999999999893e+00 9.783490000000000755e-12
5.150000000000000355e+00 9.484189999999999395e-12
5.169999999999999929e+00 9.193559999999999451e-12
5.190000000000000391e+00 8.911350000000000394e-12
5.209999999999999964e+00 8.637330000000000315e-12
5.230000000000000426e+00 8.371270000000000538e-12
5.250000000000000000e+00 8.112950000000000080e-12
5.269999999999999574e+00 7.862160000000000499e-12
5.290000000000000036e+00 7.618669999999999888e-12
5.309999999999999609e+00 7.382299999999999351e-12
5.330000000000000071e+00 7.152839999999999640e-12
5.349999999999999645e+00 6.930100000000000127e-12
5.370000000000000107e+00 6.713890000000000183e-12
5.389999999999999680e+00 6.504019999999999987e-12
5.410000000000000142e+00 6.300330000000000075e-12
5.429999999999999716e+00 6.102639999999999935e-12
5.450000000000000178e+00 5.910769999999999865e-12
5.469999999999999751e+00 5.724560000000000399e-12
5.490000000000000213e+00 5.543869999999999883e-12
5.509999999999999787e+00 5.368520000000000232e-12
5.530000000000000249e+00 5.198379999999999908e-12
5.549999999999999822e+00 5.033280000000000137e-12
5.570000000000000284e+00 4.873100000000000309e-12
5.589999999999999858e+00 4.717690000000000267e-12
5.610000000000000320e+00 4.566909999999999975e-12
5.629999999999999893e+00 4.420639999999999630e-12
5.650000000000000355e+00 4.278750000000000120e-12
5.669999999999999929e+00 4.141109999999999911e-12
5.690000000000000391e+00 4.007600000000000008e-12
5.709999999999999964e+00 3.878099999999999803e-12
5.730000000000000426e+00 3.752509999999999729e-12
5.750000000000000000e+00 3.630709999999999986e-12
5.769999999999999574e+00 3.512579999999999963e-12
5.790000000000000036e+00 3.398039999999999928e-12
5.809999999999999609e+00 3.286959999999999961e-12
5.830000000000000071e+00 3.179259999999999925e-12
5.849999999999999645e+00 3.074839999999999851e-12
5.870000000000000107e+00 2.973600000000000173e-12
5.889999999999999680e+00 2.875449999999999829e-12
5.910000000000000142e+00 2.780300000000000179e-12
5.929999999999999716e+00 2.688069999999999874e-12
5.950000000000000178e+00 2.598669999999999872e-12
5.969999999999999751e+00 2.512030000000000152e-12
5.990000000000000213e+00 2.428049999999999938e-12
6.009999999999999787e+00 2.346670000000000138e-12
6.030000000000000249e+00 2.267800000000000091e-12
6.049999999999999822e+00 2.191379999999999898e-12
6.070000000000000284e+00 2.117329999999999824e-12
6.089999999999999858e+00 2.045589999999999970e-12
6.110000000000000320e+00 1.976089999999999913e-12
6.129999999999999893e+00 1.908760000000000038e-12
6.150000000000000355e+00 1.843529999999999921e-12
6.169999999999999929e+00 1.780360000000000100e-12
6.190000000000000391e+00 1.719170000000000035e-12
6.209999999999999964e+00 1.659909999999999942e-12
6.230000000000000426e+00 1.602519999999999921e-12
6.250000000000000000e+00 1.546949999999999987e-12
6.269999999999999574e+00 1.493149999999999954e-12
6.290000000000000036e+00 1.441050000000000004e-12
6.309999999999999609e+00 1.390619999999999986e-12
6.330000000000000071e+00 1.341790000000000082e-12
6.349999999999999645e+00 1.294540000000000056e-12
6.370000000000000107e+00 1.248800000000000091e-12
6.389999999999999680e+00 1.204529999999999917e-12
6.410000000000000142e+00 1.161690000000000071e-12
6.429999999999999716e+00 1.120229999999999963e-12
6.450000000000000178e+00 1.080120000000000046e-12
6.469999999999999751e+00 1.041320000000000050e-12
6.490000000000000213e+00 1.003779999999999990e-12
6.509999999999999787e+00 9.674670000000000013e-13
6.530000000000000249e+00 9.323439999999999297e-13
6.549999999999999822e+00 8.983749999999999964e-13
6.570000000000000284e+00 8.655280000000000052e-13
6.589999999999999858e+00 8.337650000000000324e-13
6.610000000000000320e+00 8.030549999999999542e-13
6.629999999999999893e+00 7.733659999999999784e-13
6.650000000000000355e+00 7.446679999999999527e-13
6.669999999999999929e+00 7.169289999999999838e-13
6.690000000000000391e+00 6.901199999999999917e-13
6.709999999999999964e+00 6.642129999999999689e-13
6.730000000000000426e+00 6.391809999999999802e-13
6.750000000000000000e+00 6.149969999999999896e-13
6.769999999999999574e+00 5.916339999999999608e-13
6.790000000000000036e+00 5.690670000000000025e-13
6.809999999999999609e+00 5.472719999999999929e-13
6.830000000000000071e+00 5.262250000000000120e-13
6.849999999999999645e+00 5.059020000000000389e-13
6.870000000000000107e+00 4.862809999999999956e-13
6.889999999999999680e+00 4.673409999999999773e-13
6.910000000000000142e+00 4.490600000000000071e-13
6.929999999999999716e+00 4.314169999999999781e-13
6.950000000000000178e+00 4.143929999999999792e-13
6.969999999999999751e+00 3.979679999999999760e-13
6.990000000000000213e+00 3.821230000000000066e-13
7.009999999999999787e+00 3.668399999999999798e-13
7.030000000000000249e+00 3.521019999999999773e-13
7.049999999999999822e+00 3.378899999999999870e-13
7.070000000000000284e+00 3.241880000000000117e-13
7.089999999999999858e+00 3.109800000000000037e-13
7.110000000000000320e+00 2.982509999999999880e-13
7.129999999999999893e+00 2.859850000000000178e-13
7.150000000000000355e+00 2.741659999999999952e-13
7.169999999999999929e+00 2.627809999999999887e-13
7.190000000000000391e+00 2.518159999999999945e-13
7.209999999999999964e+00 2.412570000000000089e-13
7.230000000000000426e+00 2.310909999999999995e-13
7.259999999999999787e+00 2.213050000000000097e-13
7.280000000000000249e+00 2.118870000000000038e-13
7.299999999999999822e+00 2.028249999999999966e-13
7.320000000000000284e+00 1.941070000000000028e-13
7.339999999999999858e+00 1.857220000000000088e-13
7.360000000000000320e+00 1.776580000000000039e-13
7.379999999999999893e+00 1.699059999999999931e-13
7.400000000000000355e+00 1.624549999999999878e-13
7.419999999999999929e+00 1.552939999999999995e-13
7.440000000000000391e+00 1.484150000000000042e-13
7.459999999999999964e+00 1.418080000000000103e-13
7.480000000000000426e+00 1.354630000000000005e-13
7.500000000000000000e+00 1.293720000000000015e-13
7.519999999999999574e+00 1.235259999999999929e-13
7.540000000000000036e+00 1.179170000000000013e-13
7.559999999999999609e+00 1.125370000000000030e-13
7.580000000000000071e+00 1.073779999999999995e-13
7.599999999999999645e+00 1.024330000000000014e-13
7.620000000000000107e+00 9.769359999999999380e-14
7.639999999999999680e+00 9.315320000000000388e-14
7.660000000000000142e+00 8.880510000000000093e-14
7.679999999999999716e+00 8.464220000000000107e-14
7.700000000000000178e+00 8.065840000000000445e-14
7.719999999999999751e+00 7.684719999999999490e-14
7.740000000000000213e+00 7.320260000000000506e-14
7.759999999999999787e+00 6.971869999999999907e-14
7.780000000000000249e+00 6.638990000000000068e-14
7.799999999999999822e+00 6.321050000000000112e-14
7.820000000000000284e+00 6.017519999999999536e-14
7.839999999999999858e+00 5.727890000000000547e-14
7.860000000000000320e+00 5.451650000000000302e-14
7.879999999999999893e+00 5.188309999999999932e-14
7.900000000000000355e+00 4.937420000000000306e-14
7.919999999999999929e+00 4.698500000000000124e-14
7.940000000000000391e+00 4.471119999999999809e-14
7.959999999999999964e+00 4.254849999999999788e-14
7.980000000000000426e+00 4.049280000000000039e-14
8.000000000000000000e+00 3.853999999999999911e-14
8.019999999999999574e+00 3.668639999999999754e-14
8.039999999999999147e+00 3.492809999999999735e-14
8.060000000000000497e+00 3.326150000000000297e-14
8.080000000000000071e+00 3.168320000000000176e-14
8.099999999999999645e+00 3.018959999999999815e-14
8.119999999999999218e+00 2.877770000000000217e-14
8.140000000000000568e+00 2.744410000000000117e-14
8.160000000000000142e+00 2.618579999999999885e-14
8.179999999999999716e+00 2.499979999999999890e-14
8.199999999999999289e+00 2.388319999999999965e-14
8.220000000000000639e+00 2.283330000000000127e-14
8.240000000000000213e+00 2.184749999999999854e-14
8.259999999999999787e+00 2.092300000000000018e-14
8.279999999999999361e+00 2.005750000000000061e-14
8.300000000000000711e+00 1.924830000000000001e-14
8.320000000000000284e+00 1.849330000000000095e-14
8.339999999999999858e+00 1.779010000000000010e-14
8.359999999999999432e+00 1.713660000000000003e-14
8.380000000000000782e+00 1.653070000000000018e-14
8.400000000000000355e+00 1.597029999999999999e-14
8.419999999999999929e+00 1.545350000000000074e-14
8.439999999999999503e+00 1.497829999999999965e-14
8.460000000000000853e+00 1.454289999999999892e-14
8.480000000000000426e+00 1.414549999999999921e-14
8.500000000000000000e+00 1.378449999999999985e-14
