# log10(T) rate(cm^3/s)
# RecombRates
3.500000000000000000e+00 2.836390000000000196e-12
3.520000000000000018e+00 2.740979999999999898e-12
3.540000000000000036e+00 2.648520000000000109e-12
3.560000000000000053e+00 2.558910000000000049e-12
3.580000000000000071e+00 2.472069999999999987e-12
3.600000000000000089e+00 2.387940000000000021e-12
3.620000000000000107e+00 2.304560000000000027e-12
3.640000000000000124e+00 2.225660000000000030e-12
3.660000000000000142e+00 2.149209999999999886e-12
3.680000000000000160e+00 2.075150000000000099e-12
3.700000000000000178e+00 2.003390000000000009e-12
3.720000000000000195e+00 1.933879999999999834e-12
3.740000000000000213e+00 1.866549999999999958e-12
3.759999999999999787e+00 1.801349999999999993e-12
3.779999999999999805e+00 1.738200000000000005e-12
3.799999999999999822e+00 1.677050000000000008e-12
3.819999999999999840e+00 1.617859999999999934e-12
3.839999999999999858e+00 1.560589999999999917e-12
3.859999999999999876e+00 1.505219999999999921e-12
3.879999999999999893e+00 1.451769999999999982e-12
3.899999999999999911e+00 1.400309999999999917e-12
3.919999999999999929e+00 1.350830000000000011e-12
3.939999999999999947e+00 1.303679999999999954e-12
3.959999999999999964e+00 1.259180000000000093e-12
3.979999999999999982e+00 1.217819999999999954e-12
4.000000000000000000e+00 1.180380000000000066e-12
4.019999999999999574e+00 1.147909999999999902e-12
4.040000000000000036e+00 1.121889999999999979e-12
4.059999999999999609e+00 1.104230000000000032e-12
4.080000000000000071e+00 1.097360000000000082e-12
4.099999999999999645e+00 1.104330000000000001e-12
4.120000000000000107e+00 1.128809999999999913e-12
4.139999999999999680e+00 1.175169999999999929e-12
4.160000000000000142e+00 1.248440000000000080e-12
4.179999999999999716e+00 1.354329999999999945e-12
4.200000000000000178e+00 1.499160000000000046e-12
4.219999999999999751e+00 1.689830000000000081e-12
4.240000000000000213e+00 1.933679999999999895e-12
4.259999999999999787e+00 2.238430000000000187e-12
4.280000000000000249e+00 2.612079999999999912e-12
4.299999999999999822e+00 3.062680000000000032e-12
4.320000000000000284e+00 3.598340000000000195e-12
4.339999999999999858e+00 4.226920000000000330e-12
4.360000000000000320e+00 4.956050000000000072e-12
4.379999999999999893e+00 5.792769999999999762e-12
4.400000000000000355e+00 6.743580000000000231e-12
4.419999999999999929e+00 7.814020000000000666e-12
4.440000000000000391e+00 9.008680000000000343e-12
4.459999999999999964e+00 1.033079999999999956e-11
4.480000000000000426e+00 1.178229999999999999e-11
4.500000000000000000e+00 1.336320000000000025e-11
4.519999999999999574e+00 1.507190000000000084e-11
4.540000000000000036e+00 1.690470000000000005e-11
4.559999999999999609e+00 1.885579999999999888e-11
4.580000000000000071e+00 2.091700000000000064e-11
4.599999999999999645e+00 2.307820000000000076e-11
4.620000000000000107e+00 2.532669999999999951e-11
4.639999999999999680e+00 2.764799999999999851e-11
4.660000000000000142e+00 3.002589999999999710e-11
4.679999999999999716e+00 3.244209999999999724e-11
4.700000000000000178e+00 3.487729999999999882e-11
4.719999999999999751e+00 3.731110000000000002e-11
4.740000000000000213e+00 3.972270000000000077e-11
4.769999999999999574e+00 4.209069999999999714e-11
4.790000000000000036e+00 4.439440000000000155e-11
4.809999999999999609e+00 4.661320000000000014e-11
4.830000000000000071e+00 4.872809999999999792e-11
4.849999999999999645e+00 5.072090000000000292e-11
4.870000000000000107e+00 5.257520000000000240e-11
4.889999999999999680e+00 5.427670000000000035e-11
4.910000000000000142e+00 5.581270000000000027e-11
4.929999999999999716e+00 5.717329999999999994e-11
4.950000000000000178e+00 5.835039999999999581e-11
4.969999999999999751e+00 5.933849999999999884e-11
4.990000000000000213e+00 6.013419999999999796e-11
5.009999999999999787e+00 6.073649999999999752e-11
5.030000000000000249e+00 6.114630000000000008e-11
5.049999999999999822e+00 6.136669999999999861e-11
5.070000000000000284e+00 6.140249999999999812e-11
5.089999999999999858e+00 6.125980000000000439e-11
5.110000000000000320e+00 6.094659999999999559e-11
5.129999999999999893e+00 6.047160000000000498e-11
5.150000000000000355e+00 5.984489999999999514e-11
5.169999999999999929e+00 5.907720000000000357e-11
5.190000000000000391e+00 5.817950000000000186e-11
5.209999999999999964e+00 5.716349999999999730e-11
5.230000000000000426e+00 5.604099999999999678e-11
5.250000000000000000e+00 5.482390000000000028e-11
5.269999999999999574e+00 5.352400000000000175e-11
5.290000000000000036e+00 5.215249999999999775e-11
5.309999999999999609e+00 5.072090000000000292e-11
5.330000000000000071e+00 4.923979999999999704e-11
5.349999999999999645e+00 4.771949999999999998e-11
5.370000000000000107e+00 4.616950000000000274e-11
5.389999999999999680e+00 4.459909999999999724e-11
5.410000000000000142e+00 4.301679999999999822e-11
5.429999999999999716e+00 4.143019999999999849e-11
5.450000000000000178e+00 3.984639999999999953e-11
5.469999999999999751e+00 3.827209999999999805e-11
5.490000000000000213e+00 3.671310000000000115e-11
5.509999999999999787e+00 3.517440000000000005e-11
5.530000000000000249e+00 3.366079999999999971e-11
5.549999999999999822e+00 3.217620000000000258e-11
5.570000000000000284e+00 3.072419999999999948e-11
5.589999999999999858e+00 2.930759999999999762e-11
5.610000000000000320e+00 2.792879999999999950e-11
5.629999999999999893e+00 2.658989999999999922e-11
5.650000000000000355e+00 2.529249999999999951e-11
5.669999999999999929e+00 2.403779999999999841e-11
5.690000000000000391e+00 2.282649999999999932e-11
5.709999999999999964e+00 2.165929999999999920e-11
5.730000000000000426e+00 2.053630000000000086e-11
5.750000000000000000e+00 1.945760000000000062e-11
5.769999999999999574e+00 1.842289999999999978e-11
5.790000000000000036e+00 1.743170000000000053e-11
5.809999999999999609e+00 1.648360000000000137e-11
5.830000000000000071e+00 1.557760000000000019e-11
5.849999999999999645e+00 1.471309999999999958e-11
5.870000000000000107e+00 1.388889999999999992e-11
5.889999999999999680e+00 1.310400000000000071e-11
5.910000000000000142e+00 1.235730000000000027e-11
5.929999999999999716e+00 1.164749999999999939e-11
5.950000000000000178e+00 1.097359999999999920e-11
5.969999999999999751e+00 1.033409999999999976e-11
5.990000000000000213e+00 9.727799999999999808e-12
6.009999999999999787e+00 9.153429999999999701e-12
6.030000000000000249e+00 8.609719999999999790e-12
6.049999999999999822e+00 8.095350000000000639e-12
6.070000000000000284e+00 7.609060000000000295e-12
6.089999999999999858e+00 7.149620000000000387e-12
6.110000000000000320e+00 6.715790000000000003e-12
6.129999999999999893e+00 6.306379999999999630e-12
6.150000000000000355e+00 5.920199999999999755e-12
6.169999999999999929e+00 5.556140000000000193e-12
6.190000000000000391e+00 5.213100000000000072e-12
6.209999999999999964e+00 4.890000000000000368e-12
6.230000000000000426e+00 4.585820000000000346e-12
6.250000000000000000e+00 4.299560000000000311e-12
6.269999999999999574e+00 4.030299999999999902e-12
6.290000000000000036e+00 3.777110000000000250e-12
6.309999999999999609e+00 3.539109999999999851e-12
6.330000000000000071e+00 3.315469999999999806e-12
6.349999999999999645e+00 3.105400000000000076e-12
6.370000000000000107e+00 2.908130000000000049e-12
6.389999999999999680e+00 2.722929999999999990e-12
6.410000000000000142e+00 2.549119999999999946e-12
6.429999999999999716e+00 2.386049999999999915e-12
6.450000000000000178e+00 2.233080000000000013e-12
6.469999999999999751e+00 2.089629999999999851e-12
6.490000000000000213e+00 1.955129999999999970e-12
6.509999999999999787e+00 1.829070000000000000e-12
6.530000000000000249e+00 1.710919999999999944e-12
6.549999999999999822e+00 1.600220000000000021e-12
6.570000000000000284e+00 1.496519999999999969e-12
6.589999999999999858e+00 1.399400000000000075e-12
6.610000000000000320e+00 1.308440000000000027e-12
6.629999999999999893e+00 1.223280000000000014e-12
6.650000000000000355e+00 1.143569999999999943e-12
6.669999999999999929e+00 1.068959999999999920e-12
6.690000000000000391e+00 9.991280000000000620e-13
6.709999999999999964e+00 9.337900000000000025e-13
6.730000000000000426e+00 8.726619999999999827e-13
6.750000000000000000e+00 8.154799999999999745e-13
6.769999999999999574e+00 7.619929999999999824e-13
6.790000000000000036e+00 7.119700000000000450e-13
6.809999999999999609e+00 6.651940000000000028e-13
6.830000000000000071e+00 6.214580000000000163e-13
6.849999999999999645e+00 5.805670000000000040e-13
6.870000000000000107e+00 5.423409999999999607e-13
6.889999999999999680e+00 5.066109999999999706e-13
6.910000000000000142e+00 4.732159999999999902e-13
6.929999999999999716e+00 4.420060000000000151e-13
6.950000000000000178e+00 4.128419999999999790e-13
6.969999999999999751e+00 3.855920000000000194e-13
6.990000000000000213e+00 3.601319999999999946e-13
7.009999999999999787e+00 3.363459999999999887e-13
7.030000000000000249e+00 3.141269999999999801e-13
7.049999999999999822e+00 2.933730000000000061e-13
7.070000000000000284e+00 2.739879999999999832e-13
7.089999999999999858e+00 2.558840000000000030e-13
7.110000000000000320e+00 2.389769999999999924e-13
7.129999999999999893e+00 2.231900000000000062e-13
7.150000000000000355e+00 2.084489999999999886e-13
7.169999999999999929e+00 1.946870000000000114e-13
7.190000000000000391e+00 1.818379999999999922e-13
7.209999999999999964e+00 1.698439999999999981e-13
7.230000000000000426e+00 1.586479999999999920e-13
7.259999999999999787e+00 1.481969999999999995e-13
7.280000000000000249e+00 1.384440000000000006e-13
7.299999999999999822e+00 1.293420000000000006e-13
7.320000000000000284e+00 1.208489999999999882e-13
7.339999999999999858e+00 1.129230000000000026e-13
7.360000000000000320e+00 1.055289999999999964e-13
7.379999999999999893e+00 9.863030000000000131e-14
7.400000000000000355e+00 9.219480000000000314e-14
7.419999999999999929e+00 8.619189999999999546e-14
7.440000000000000391e+00 8.059320000000000489e-14
7.459999999999999964e+00 7.537169999999999528e-14
7.480000000000000426e+00 7.050249999999999418e-14
7.500000000000000000e+00 6.596240000000000073e-14
7.519999999999999574e+00 6.172829999999999608e-14
7.540000000000000036e+00 5.778220000000000243e-14
7.559999999999999609e+00 5.410380000000000166e-14
7.580000000000000071e+00 5.067550000000000076e-14
7.599999999999999645e+00 4.748069999999999705e-14
7.620000000000000107e+00 4.450379999999999713e-14
7.639999999999999680e+00 4.173039999999999983e-14
7.660000000000000142e+00 3.914689999999999877e-14
7.679999999999999716e+00 3.674060000000000225e-14
7.700000000000000178e+00 3.449980000000000260e-14
7.719999999999999751e+00 3.241339999999999773e-14
7.740000000000000213e+00 3.047120000000000021e-14
7.759999999999999787e+00 2.866340000000000108e-14
7.780000000000000249e+00 2.698109999999999976e-14
7.799999999999999822e+00 2.541590000000000028e-14
7.820000000000000284e+00 2.395999999999999964e-14
7.839999999999999858e+00 2.260590000000000077e-14
7.860000000000000320e+00 2.134699999999999918e-14
7.879999999999999893e+00 2.017680000000000080e-14
7.900000000000000355e+00 1.908940000000000131e-14
7.919999999999999929e+00 1.807910000000000144e-14
7.940000000000000391e+00 1.714080000000000116e-14
7.959999999999999964e+00 1.626959999999999916e-14
7.980000000000000426e+00 1.546100000000000097e-14
8.000000000000000000e+00 1.471079999999999915e-14
8.019999999999999574e+00 1.401489999999999981e-14
8.039999999999999147e+00 1.336980000000000043e-14
8.060000000000000497e+00 1.277190000000000072e-14
8.080000000000000071e+00 1.221810000000000028e-14
8.099999999999999645e+00 1.170530000000000031e-14
8.119999999999999218e+00 1.123070000000000005e-14
8.140000000000000568e+00 1.079170000000000061e-14
8.160000000000000142e+00 1.038590000000000020e-14
8.179999999999999716e+00 1.001099999999999958e-14
8.199999999999999289e+00 9.664779999999999247e-15
8.220000000000000639e+00 9.345360000000000063e-15
8.240000000000000213e+00 9.050849999999999938e-15
8.259999999999999787e+00 8.779490000000000199e-15
8.279999999999999361e+00 8.529689999999999966e-15
8.300000000000000711e+00 8.299920000000000178e-15
8.320000000000000284e+00 8.088770000000000682e-15
8.339999999999999858e+00 7.894919999999999316e-15
8.359999999999999432e+00 7.717159999999999363e-15
8.380000000000000782e+00 7.554320000000000053e-15
8.400000000000000355e+00 7.405359999999999305e-15
8.419999999999999929e+00 7.269249999999999545e-15
8.439999999999999503e+00 7.145070000000000750e-15
8.460000000000000853e+00 7.031939999999999639e-15
8.480000000000000426e+00 6.929059999999999829e-15
8.500000000000000000e+00 6.835670000000000100e-15
