# log10(T) rate(cm^3/s)
# RecombRates
3.500000000000000000e+00 3.238369999999999851e-09
3.520000000000000018e+00 3.196180000000000020e-09
3.540000000000000036e+00 3.147020000000000161e-09
3.560000000000000053e+00 3.091550000000000145e-09
3.580000000000000071e+00 3.030429999999999843e-09
3.600000000000000089e+00 2.964310000000000075e-09
3.620000000000000107e+00 2.893840000000000008e-09
3.640000000000000124e+00 2.819660000000000166e-09
3.660000000000000142e+00 2.742360000000000030e-09
3.680000000000000160e+00 2.662529999999999904e-09
3.700000000000000178e+00 2.580720000000000162e-09
3.720000000000000195e+00 2.497449999999999891e-09
3.740000000000000213e+00 2.413210000000000190e-09
3.759999999999999787e+00 2.328450000000000164e-09
3.779999999999999805e+00 2.243569999999999936e-09
3.799999999999999822e+00 2.158949999999999870e-09
3.819999999999999840e+00 2.074939999999999868e-09
3.839999999999999858e+00 1.991840000000000020e-09
3.859999999999999876e+00 1.909910000000000077e-09
3.879999999999999893e+00 1.829409999999999993e-09
3.899999999999999911e+00 1.750540000000000037e-09
3.919999999999999929e+00 1.673470000000000012e-09
3.939999999999999947e+00 1.598369999999999931e-09
3.959999999999999964e+00 1.525359999999999993e-09
3.979999999999999982e+00 1.454549999999999904e-09
4.000000000000000000e+00 1.386019999999999935e-09
4.019999999999999574e+00 1.319829999999999980e-09
4.040000000000000036e+00 1.256030000000000056e-09
4.059999999999999609e+00 1.194650000000000005e-09
4.080000000000000071e+00 1.135690000000000035e-09
4.099999999999999645e+00 1.079160000000000025e-09
4.120000000000000107e+00 1.025050000000000095e-09
4.139999999999999680e+00 9.733270000000000656e-10
4.160000000000000142e+00 9.239609999999999902e-10
4.179999999999999716e+00 8.769059999999999908e-10
4.200000000000000178e+00 8.321110000000000437e-10
4.219999999999999751e+00 7.895189999999999699e-10
4.240000000000000213e+00 7.490689999999999700e-10
4.259999999999999787e+00 7.106919999999999690e-10
4.280000000000000249e+00 6.743169999999999783e-10
4.299999999999999822e+00 6.398709999999999920e-10
4.320000000000000284e+00 6.072779999999999785e-10
4.339999999999999858e+00 5.764620000000000097e-10
4.360000000000000320e+00 5.473469999999999505e-10
4.379999999999999893e+00 5.198559999999999675e-10
4.400000000000000355e+00 4.939130000000000293e-10
4.419999999999999929e+00 4.694440000000000180e-10
4.440000000000000391e+00 4.463769999999999879e-10
4.459999999999999964e+00 4.246420000000000107e-10
4.480000000000000426e+00 4.041719999999999770e-10
4.500000000000000000e+00 3.849040000000000183e-10
4.519999999999999574e+00 3.667760000000000164e-10
4.540000000000000036e+00 3.497330000000000164e-10
4.559999999999999609e+00 3.337219999999999773e-10
4.580000000000000071e+00 3.186929999999999871e-10
4.599999999999999645e+00 3.046010000000000217e-10
4.620000000000000107e+00 2.914049999999999879e-10
4.639999999999999680e+00 2.790660000000000163e-10
4.660000000000000142e+00 2.675480000000000050e-10
4.679999999999999716e+00 2.568170000000000242e-10
4.700000000000000178e+00 2.468420000000000147e-10
4.719999999999999751e+00 2.375920000000000208e-10
4.740000000000000213e+00 2.290350000000000006e-10
4.769999999999999574e+00 2.211429999999999983e-10
4.790000000000000036e+00 2.138820000000000065e-10
4.809999999999999609e+00 2.072209999999999920e-10
4.830000000000000071e+00 2.011259999999999991e-10
4.849999999999999645e+00 1.955610000000000033e-10
4.870000000000000107e+00 1.904889999999999974e-10
4.889999999999999680e+00 1.858719999999999916e-10
4.910000000000000142e+00 1.816679999999999873e-10
4.929999999999999716e+00 1.778370000000000033e-10
4.950000000000000178e+00 1.743369999999999895e-10
4.969999999999999751e+00 1.711259999999999993e-10
4.990000000000000213e+00 1.681620000000000082e-10
5.009999999999999787e+00 1.654029999999999922e-10
5.030000000000000249e+00 1.628109999999999871e-10
5.049999999999999822e+00 1.603469999999999944e-10
5.070000000000000284e+00 1.579759999999999981e-10
5.089999999999999858e+00 1.556660000000000082e-10
5.110000000000000320e+00 1.533850000000000085e-10
5.129999999999999893e+00 1.511090000000000000e-10
5.150000000000000355e+00 1.488130000000000009e-10
5.169999999999999929e+00 1.464780000000000033e-10
5.190000000000000391e+00 1.440879999999999992e-10
5.209999999999999964e+00 1.416309999999999889e-10
5.230000000000000426e+00 1.390960000000000075e-10
5.250000000000000000e+00 1.364770000000000034e-10
5.269999999999999574e+00 1.337720000000000112e-10
5.290000000000000036e+00 1.309799999999999964e-10
5.309999999999999609e+00 1.281040000000000107e-10
5.330000000000000071e+00 1.251470000000000022e-10
5.349999999999999645e+00 1.221139999999999880e-10
5.370000000000000107e+00 1.190150000000000021e-10
5.389999999999999680e+00 1.158560000000000056e-10
5.410000000000000142e+00 1.126480000000000023e-10
5.429999999999999716e+00 1.094000000000000048e-10
5.450000000000000178e+00 1.061239999999999998e-10
5.469999999999999751e+00 1.028289999999999998e-10
5.490000000000000213e+00 9.952729999999999658e-11
5.509999999999999787e+00 9.622860000000000620e-11
5.530000000000000249e+00 9.294329999999999636e-11
5.549999999999999822e+00 8.968029999999999946e-11
5.570000000000000284e+00 8.645059999999999354e-11
5.589999999999999858e+00 8.326199999999999641e-11
5.610000000000000320e+00 8.012240000000000603e-11
5.629999999999999893e+00 7.703960000000000143e-11
5.650000000000000355e+00 7.402049999999999787e-11
5.669999999999999929e+00 7.107140000000000027e-11
5.690000000000000391e+00 6.819780000000000411e-11
5.709999999999999964e+00 6.540479999999999370e-11
5.730000000000000426e+00 6.269689999999999470e-11
5.750000000000000000e+00 6.007779999999999751e-11
5.769999999999999574e+00 5.755070000000000114e-11
5.790000000000000036e+00 5.511810000000000119e-11
5.809999999999999609e+00 5.278200000000000188e-11
5.830000000000000071e+00 5.054369999999999758e-11
5.849999999999999645e+00 4.840379999999999859e-11
5.870000000000000107e+00 4.636249999999999758e-11
5.889999999999999680e+00 4.441899999999999804e-11
5.910000000000000142e+00 4.257209999999999871e-11
5.929999999999999716e+00 4.082000000000000095e-11
5.950000000000000178e+00 3.916030000000000228e-11
5.969999999999999751e+00 3.759010000000000237e-11
5.990000000000000213e+00 3.610589999999999704e-11
6.009999999999999787e+00 3.470400000000000237e-11
6.030000000000000249e+00 3.338009999999999829e-11
6.049999999999999822e+00 3.212989999999999702e-11
6.070000000000000284e+00 3.094850000000000045e-11
6.089999999999999858e+00 2.983130000000000275e-11
6.110000000000000320e+00 2.877349999999999892e-11
6.129999999999999893e+00 2.777049999999999925e-11
6.150000000000000355e+00 2.681659999999999945e-11
6.169999999999999929e+00 2.590819999999999900e-11
6.190000000000000391e+00 2.504100000000000043e-11
6.209999999999999964e+00 2.421060000000000026e-11
6.230000000000000426e+00 2.341309999999999926e-11
6.250000000000000000e+00 2.264499999999999974e-11
6.269999999999999574e+00 2.190309999999999944e-11
6.290000000000000036e+00 2.118470000000000040e-11
6.309999999999999609e+00 2.048710000000000143e-11
6.330000000000000071e+00 1.980840000000000110e-11
6.349999999999999645e+00 1.914659999999999841e-11
6.370000000000000107e+00 1.850019999999999987e-11
6.389999999999999680e+00 1.786790000000000144e-11
6.410000000000000142e+00 1.724880000000000058e-11
6.429999999999999716e+00 1.664210000000000075e-11
6.450000000000000178e+00 1.604730000000000090e-11
6.469999999999999751e+00 1.546389999999999997e-11
6.490000000000000213e+00 1.489179999999999840e-11
6.509999999999999787e+00 1.433089999999999985e-11
6.530000000000000249e+00 1.378079999999999960e-11
6.549999999999999822e+00 1.324249999999999977e-11
6.570000000000000284e+00 1.271539999999999972e-11
6.589999999999999858e+00 1.219989999999999934e-11
6.610000000000000320e+00 1.169640000000000012e-11
6.629999999999999893e+00 1.120500000000000002e-11
6.650000000000000355e+00 1.072610000000000051e-11
6.669999999999999929e+00 1.025969999999999999e-11
6.690000000000000391e+00 9.806249999999999741e-12
6.709999999999999964e+00 9.365779999999999296e-12
6.730000000000000426e+00 8.938529999999999880e-12
6.750000000000000000e+00 8.524590000000000131e-12
6.769999999999999574e+00 8.124050000000000305e-12
6.790000000000000036e+00 7.736960000000000184e-12
6.809999999999999609e+00 7.363340000000000005e-12
6.830000000000000071e+00 7.003139999999999985e-12
6.849999999999999645e+00 6.656279999999999987e-12
6.870000000000000107e+00 6.322659999999999637e-12
6.889999999999999680e+00 6.002149999999999825e-12
6.910000000000000142e+00 5.694549999999999803e-12
6.929999999999999716e+00 5.399659999999999632e-12
6.950000000000000178e+00 5.117249999999999829e-12
6.969999999999999751e+00 4.847059999999999745e-12
6.990000000000000213e+00 4.588810000000000114e-12
7.009999999999999787e+00 4.342189999999999696e-12
7.030000000000000249e+00 4.106909999999999915e-12
7.049999999999999822e+00 3.882629999999999986e-12
7.070000000000000284e+00 3.668999999999999815e-12
7.089999999999999858e+00 3.465700000000000066e-12
7.110000000000000320e+00 3.272360000000000003e-12
7.129999999999999893e+00 3.088030000000000121e-12
7.150000000000000355e+00 2.913459999999999987e-12
7.169999999999999929e+00 2.747700000000000096e-12
7.190000000000000391e+00 2.590459999999999849e-12
7.209999999999999964e+00 2.441400000000000078e-12
7.230000000000000426e+00 2.300199999999999832e-12
7.259999999999999787e+00 2.166540000000000177e-12
7.280000000000000249e+00 2.040069999999999808e-12
7.299999999999999822e+00 1.920460000000000079e-12
7.320000000000000284e+00 1.807410000000000071e-12
7.339999999999999858e+00 1.700580000000000010e-12
7.360000000000000320e+00 1.599690000000000023e-12
7.379999999999999893e+00 1.504449999999999916e-12
7.400000000000000355e+00 1.414550000000000066e-12
7.419999999999999929e+00 1.329750000000000064e-12
7.440000000000000391e+00 1.249779999999999952e-12
7.459999999999999964e+00 1.174399999999999923e-12
7.480000000000000426e+00 1.103349999999999938e-12
7.500000000000000000e+00 1.036410000000000024e-12
7.519999999999999574e+00 9.733670000000000064e-13
7.540000000000000036e+00 9.140619999999999880e-13
7.559999999999999609e+00 8.581689999999999959e-13
7.580000000000000071e+00 8.056000000000000206e-13
7.599999999999999645e+00 7.561440000000000343e-13
7.620000000000000107e+00 7.096310000000000486e-13
7.639999999999999680e+00 6.658949999999999611e-13
7.660000000000000142e+00 6.247790000000000180e-13
7.679999999999999716e+00 5.861340000000000347e-13
7.700000000000000178e+00 5.498190000000000021e-13
7.719999999999999751e+00 5.156979999999999701e-13
7.740000000000000213e+00 4.836470000000000494e-13
7.759999999999999787e+00 4.535419999999999975e-13
7.780000000000000249e+00 4.252720000000000079e-13
7.799999999999999822e+00 3.987269999999999932e-13
7.820000000000000284e+00 3.738069999999999843e-13
7.839999999999999858e+00 3.504129999999999832e-13
7.860000000000000320e+00 3.284560000000000092e-13
7.879999999999999893e+00 3.078499999999999959e-13
7.900000000000000355e+00 2.885130000000000147e-13
7.919999999999999929e+00 2.703690000000000165e-13
7.940000000000000391e+00 2.533470000000000109e-13
7.959999999999999964e+00 2.373790000000000228e-13
7.980000000000000426e+00 2.223999999999999914e-13
8.000000000000000000e+00 2.083510000000000126e-13
8.019999999999999574e+00 1.951749999999999989e-13
8.039999999999999147e+00 1.828199999999999975e-13
8.060000000000000497e+00 1.712350000000000019e-13
8.080000000000000071e+00 1.603739999999999889e-13
8.099999999999999645e+00 1.501920000000000077e-13
8.119999999999999218e+00 1.406479999999999930e-13
8.140000000000000568e+00 1.317719999999999963e-13
8.160000000000000142e+00 1.233930000000000075e-13
8.179999999999999716e+00 1.155490000000000007e-13
8.199999999999999289e+00 1.082090000000000037e-13
8.220000000000000639e+00 1.013420000000000063e-13
8.240000000000000213e+00 9.491959999999999724e-14
8.259999999999999787e+00 8.891270000000000291e-14
8.279999999999999361e+00 8.329630000000000576e-14
8.300000000000000711e+00 7.804569999999999732e-14
8.320000000000000284e+00 7.313840000000000216e-14
8.339999999999999858e+00 6.855340000000000201e-14
8.359999999999999432e+00 6.427090000000000233e-14
8.380000000000000782e+00 6.027249999999999637e-14
8.400000000000000355e+00 5.654139999999999852e-14
8.419999999999999929e+00 5.306099999999999978e-14
8.439999999999999503e+00 4.981679999999999807e-14
8.460000000000000853e+00 4.679439999999999850e-14
8.480000000000000426e+00 4.398080000000000027e-14
8.500000000000000000e+00 4.136370000000000277e-14
