# log10(T) rate(cm^3/s)
# RecombRates
3.500000000000000000e+00 3.592290000000000010e-10
3.520000000000000018e+00 3.491749999999999859e-10
3.540000000000000036e+00 3.393929999999999777e-10
3.560000000000000053e+00 3.298769999999999766e-10
3.580000000000000071e+00 3.206180000000000089e-10
3.600000000000000089e+00 3.116109999999999799e-10
3.620000000000000107e+00 3.028489999999999848e-10
3.640000000000000124e+00 2.943240000000000064e-10
3.660000000000000142e+00 2.860320000000000107e-10
3.680000000000000160e+00 2.779649999999999805e-10
3.700000000000000178e+00 2.701179999999999765e-10
3.720000000000000195e+00 2.624849999999999988e-10
3.740000000000000213e+00 2.550599999999999960e-10
3.759999999999999787e+00 2.478370000000000200e-10
3.779999999999999805e+00 2.408119999999999848e-10
3.799999999999999822e+00 2.339789999999999941e-10
3.819999999999999840e+00 2.273330000000000048e-10
3.839999999999999858e+00 2.208690000000000001e-10
3.859999999999999876e+00 2.145810000000000058e-10
3.879999999999999893e+00 2.084670000000000050e-10
3.899999999999999911e+00 2.025199999999999893e-10
3.919999999999999929e+00 1.967360000000000018e-10
3.939999999999999947e+00 1.911110000000000083e-10
3.959999999999999964e+00 1.856410000000000003e-10
3.979999999999999982e+00 1.803219999999999952e-10
4.000000000000000000e+00 1.751490000000000018e-10
4.019999999999999574e+00 1.701180000000000116e-10
4.040000000000000036e+00 1.652270000000000075e-10
4.059999999999999609e+00 1.604699999999999897e-10
4.080000000000000071e+00 1.558449999999999928e-10
4.099999999999999645e+00 1.513480000000000082e-10
4.120000000000000107e+00 1.469750000000000017e-10
4.139999999999999680e+00 1.427240000000000078e-10
4.160000000000000142e+00 1.385900000000000095e-10
4.179999999999999716e+00 1.345709999999999895e-10
4.200000000000000178e+00 1.306639999999999998e-10
4.219999999999999751e+00 1.268650000000000060e-10
4.240000000000000213e+00 1.231719999999999909e-10
4.259999999999999787e+00 1.195820000000000064e-10
4.280000000000000249e+00 1.160920000000000009e-10
4.299999999999999822e+00 1.126999999999999960e-10
4.320000000000000284e+00 1.094019999999999961e-10
4.339999999999999858e+00 1.061959999999999970e-10
4.360000000000000320e+00 1.030799999999999946e-10
4.379999999999999893e+00 1.000510000000000017e-10
4.400000000000000355e+00 9.710750000000000562e-11
4.419999999999999929e+00 9.424629999999999434e-11
4.440000000000000391e+00 9.146540000000000243e-11
4.459999999999999964e+00 8.876279999999999979e-11
4.480000000000000426e+00 8.613620000000000288e-11
4.500000000000000000e+00 8.358359999999999455e-11
4.519999999999999574e+00 8.110290000000000331e-11
4.540000000000000036e+00 7.869229999999999822e-11
4.559999999999999609e+00 7.634980000000000088e-11
4.580000000000000071e+00 7.407360000000000620e-11
4.599999999999999645e+00 7.186180000000000304e-11
4.620000000000000107e+00 6.971270000000000526e-11
4.639999999999999680e+00 6.762469999999999396e-11
4.660000000000000142e+00 6.559589999999999679e-11
4.679999999999999716e+00 6.362480000000000088e-11
4.700000000000000178e+00 6.170980000000000025e-11
4.719999999999999751e+00 5.984950000000000100e-11
4.740000000000000213e+00 5.804209999999999802e-11
4.769999999999999574e+00 5.628640000000000298e-11
4.790000000000000036e+00 5.458100000000000260e-11
4.809999999999999609e+00 5.292439999999999691e-11
4.830000000000000071e+00 5.131519999999999848e-11
4.849999999999999645e+00 4.975229999999999915e-11
4.870000000000000107e+00 4.823419999999999899e-11
4.889999999999999680e+00 4.675990000000000233e-11
4.910000000000000142e+00 4.532800000000000234e-11
4.929999999999999716e+00 4.393739999999999734e-11
4.950000000000000178e+00 4.258689999999999901e-11
4.969999999999999751e+00 4.127559999999999832e-11
4.990000000000000213e+00 4.000210000000000138e-11
5.009999999999999787e+00 3.876559999999999872e-11
5.030000000000000249e+00 3.756500000000000159e-11
5.049999999999999822e+00 3.639930000000000142e-11
5.070000000000000284e+00 3.526750000000000255e-11
5.089999999999999858e+00 3.416870000000000242e-11
5.110000000000000320e+00 3.310189999999999893e-11
5.129999999999999893e+00 3.206640000000000158e-11
5.150000000000000355e+00 3.106110000000000222e-11
5.169999999999999929e+00 3.008529999999999743e-11
5.190000000000000391e+00 2.913819999999999715e-11
5.209999999999999964e+00 2.821889999999999884e-11
5.230000000000000426e+00 2.732659999999999950e-11
5.250000000000000000e+00 2.646069999999999851e-11
5.269999999999999574e+00 2.562029999999999979e-11
5.290000000000000036e+00 2.480479999999999948e-11
5.309999999999999609e+00 2.401340000000000106e-11
5.330000000000000071e+00 2.324550000000000066e-11
5.349999999999999645e+00 2.250050000000000091e-11
5.370000000000000107e+00 2.177749999999999924e-11
5.389999999999999680e+00 2.107620000000000020e-11
5.410000000000000142e+00 2.039580000000000080e-11
5.429999999999999716e+00 1.973570000000000041e-11
5.450000000000000178e+00 1.909540000000000121e-11
5.469999999999999751e+00 1.847439999999999891e-11
5.490000000000000213e+00 1.787199999999999978e-11
5.509999999999999787e+00 1.728769999999999953e-11
5.530000000000000249e+00 1.672109999999999991e-11
5.549999999999999822e+00 1.617160000000000028e-11
5.570000000000000284e+00 1.563879999999999916e-11
5.589999999999999858e+00 1.512209999999999915e-11
5.610000000000000320e+00 1.462109999999999876e-11
5.629999999999999893e+00 1.413539999999999973e-11
5.650000000000000355e+00 1.366449999999999938e-11
5.669999999999999929e+00 1.320799999999999946e-11
5.690000000000000391e+00 1.276550000000000008e-11
5.709999999999999964e+00 1.233659999999999976e-11
5.730000000000000426e+00 1.192090000000000023e-11
5.750000000000000000e+00 1.151799999999999999e-11
5.769999999999999574e+00 1.112760000000000037e-11
5.790000000000000036e+00 1.074929999999999985e-11
5.809999999999999609e+00 1.038270000000000018e-11
5.830000000000000071e+00 1.002749999999999943e-11
5.849999999999999645e+00 9.683389999999999596e-12
5.870000000000000107e+00 9.350050000000000130e-12
5.889999999999999680e+00 9.027149999999999557e-12
5.910000000000000142e+00 8.714390000000000797e-12
5.929999999999999716e+00 8.411479999999999617e-12
5.950000000000000178e+00 8.118140000000000788e-12
5.969999999999999751e+00 7.834089999999999388e-12
5.990000000000000213e+00 7.559039999999999262e-12
6.009999999999999787e+00 7.292749999999999192e-12
6.030000000000000249e+00 7.034960000000000146e-12
6.049999999999999822e+00 6.785430000000000098e-12
6.070000000000000284e+00 6.543889999999999897e-12
6.089999999999999858e+00 6.310130000000000296e-12
6.110000000000000320e+00 6.083920000000000192e-12
6.129999999999999893e+00 5.865030000000000102e-12
6.150000000000000355e+00 5.653249999999999968e-12
6.169999999999999929e+00 5.448359999999999617e-12
6.190000000000000391e+00 5.250180000000000152e-12
6.209999999999999964e+00 5.058499999999999903e-12
6.230000000000000426e+00 4.873139999999999973e-12
6.250000000000000000e+00 4.694449999999999651e-12
6.269999999999999574e+00 4.520490000000000259e-12
6.290000000000000036e+00 4.352869999999999808e-12
6.309999999999999609e+00 4.191120000000000018e-12
6.330000000000000071e+00 4.034900000000000104e-12
6.349999999999999645e+00 3.884030000000000364e-12
6.370000000000000107e+00 3.738349999999999717e-12
6.389999999999999680e+00 3.597769999999999926e-12
6.410000000000000142e+00 3.462250000000000116e-12
6.429999999999999716e+00 3.331759999999999932e-12
6.450000000000000178e+00 3.206290000000000063e-12
6.469999999999999751e+00 3.085849999999999821e-12
6.490000000000000213e+00 2.970480000000000082e-12
6.509999999999999787e+00 2.860229999999999819e-12
6.530000000000000249e+00 2.755139999999999911e-12
6.549999999999999822e+00 2.655279999999999971e-12
6.570000000000000284e+00 2.560730000000000136e-12
6.589999999999999858e+00 2.471530000000000072e-12
6.610000000000000320e+00 2.387750000000000201e-12
6.629999999999999893e+00 2.309409999999999951e-12
6.650000000000000355e+00 2.236519999999999845e-12
6.669999999999999929e+00 2.169060000000000049e-12
6.690000000000000391e+00 2.106950000000000024e-12
6.709999999999999964e+00 2.050099999999999918e-12
6.730000000000000426e+00 1.998349999999999861e-12
6.750000000000000000e+00 1.951499999999999914e-12
6.769999999999999574e+00 1.909310000000000071e-12
6.790000000000000036e+00 1.871480000000000019e-12
6.809999999999999609e+00 1.837679999999999900e-12
6.830000000000000071e+00 1.807539999999999990e-12
6.849999999999999645e+00 1.780680000000000042e-12
6.870000000000000107e+00 1.756679999999999942e-12
6.889999999999999680e+00 1.735110000000000066e-12
6.910000000000000142e+00 1.715530000000000062e-12
6.929999999999999716e+00 1.697520000000000021e-12
6.950000000000000178e+00 1.680660000000000030e-12
6.969999999999999751e+00 1.664550000000000011e-12
6.990000000000000213e+00 1.648809999999999918e-12
7.009999999999999787e+00 1.633099999999999978e-12
7.030000000000000249e+00 1.617100000000000046e-12
7.049999999999999822e+00 1.600539999999999963e-12
7.070000000000000284e+00 1.583179999999999924e-12
7.089999999999999858e+00 1.564819999999999990e-12
7.110000000000000320e+00 1.545300000000000090e-12
7.129999999999999893e+00 1.524520000000000051e-12
7.150000000000000355e+00 1.502369999999999989e-12
7.169999999999999929e+00 1.478830000000000071e-12
7.190000000000000391e+00 1.453869999999999943e-12
7.209999999999999964e+00 1.427510000000000043e-12
7.230000000000000426e+00 1.399790000000000036e-12
7.259999999999999787e+00 1.370079999999999954e-12
7.280000000000000249e+00 1.339779999999999972e-12
7.299999999999999822e+00 1.308229999999999970e-12
7.320000000000000284e+00 1.275630000000000089e-12
7.339999999999999858e+00 1.242139999999999996e-12
7.360000000000000320e+00 1.207910000000000050e-12
7.379999999999999893e+00 1.173080000000000087e-12
7.400000000000000355e+00 1.137780000000000025e-12
7.419999999999999929e+00 1.102130000000000071e-12
7.440000000000000391e+00 1.066279999999999976e-12
7.459999999999999964e+00 1.030340000000000030e-12
7.480000000000000426e+00 9.944199999999999168e-13
7.500000000000000000e+00 9.586429999999999573e-13
7.519999999999999574e+00 9.231110000000000639e-13
7.540000000000000036e+00 8.879230000000000324e-13
7.559999999999999609e+00 8.531690000000000172e-13
7.580000000000000071e+00 8.189349999999999835e-13
7.599999999999999645e+00 7.852950000000000380e-13
7.620000000000000107e+00 7.523169999999999537e-13
7.639999999999999680e+00 7.200589999999999916e-13
7.660000000000000142e+00 6.885739999999999496e-13
7.679999999999999716e+00 6.579040000000000409e-13
7.700000000000000178e+00 6.280850000000000445e-13
7.719999999999999751e+00 5.991460000000000402e-13
7.740000000000000213e+00 5.711099999999999767e-13
7.759999999999999787e+00 5.439920000000000311e-13
7.780000000000000249e+00 5.178020000000000185e-13
7.799999999999999822e+00 4.925449999999999980e-13
7.820000000000000284e+00 4.682230000000000134e-13
7.839999999999999858e+00 4.448290000000000123e-13
7.860000000000000320e+00 4.223570000000000147e-13
7.879999999999999893e+00 4.007959999999999817e-13
7.900000000000000355e+00 3.801320000000000104e-13
7.919999999999999929e+00 3.603470000000000094e-13
7.940000000000000391e+00 3.414229999999999882e-13
7.959999999999999964e+00 3.233400000000000137e-13
7.980000000000000426e+00 3.060749999999999858e-13
8.000000000000000000e+00 2.896059999999999779e-13
8.019999999999999574e+00 2.739079999999999977e-13
8.039999999999999147e+00 2.589570000000000244e-13
8.060000000000000497e+00 2.447269999999999931e-13
8.080000000000000071e+00 2.311930000000000126e-13
8.099999999999999645e+00 2.183289999999999929e-13
8.119999999999999218e+00 2.061109999999999888e-13
8.140000000000000568e+00 1.945119999999999895e-13
8.160000000000000142e+00 1.835070000000000025e-13
8.179999999999999716e+00 1.730730000000000038e-13
8.199999999999999289e+00 1.631850000000000009e-13
8.220000000000000639e+00 1.538180000000000015e-13
8.240000000000000213e+00 1.449519999999999967e-13
8.259999999999999787e+00 1.366430000000000015e-13
8.279999999999999361e+00 1.287099999999999887e-13
8.300000000000000711e+00 1.212200000000000126e-13
8.320000000000000284e+00 1.141529999999999883e-13
8.339999999999999858e+00 1.074889999999999952e-13
8.359999999999999432e+00 1.012070000000000023e-13
8.380000000000000782e+00 9.528829999999999394e-14
8.400000000000000355e+00 8.971490000000000479e-14
8.419999999999999929e+00 8.446840000000000286e-14
8.439999999999999503e+00 7.953230000000000534e-14
8.460000000000000853e+00 7.489040000000000065e-14
8.480000000000000426e+00 7.052749999999999912e-14
8.500000000000000000e+00 6.642959999999999696e-14
