# log10(T) rate(cm^3/s)
# RecombRates
3.500000000000000000e+00 4.877809999999999516e-10
3.520000000000000018e+00 4.745340000000000490e-10
3.540000000000000036e+00 4.616380000000000038e-10
3.560000000000000053e+00 4.490839999999999973e-10
3.580000000000000071e+00 4.368630000000000040e-10
3.600000000000000089e+00 4.249659999999999985e-10
3.620000000000000107e+00 4.133850000000000154e-10
3.640000000000000124e+00 4.021129999999999948e-10
3.660000000000000142e+00 3.911400000000000059e-10
3.680000000000000160e+00 3.804579999999999801e-10
3.700000000000000178e+00 3.700619999999999780e-10
3.720000000000000195e+00 3.599420000000000170e-10
3.740000000000000213e+00 3.500919999999999942e-10
3.759999999999999787e+00 3.405039999999999959e-10
3.779999999999999805e+00 3.311720000000000223e-10
3.799999999999999822e+00 3.220900000000000220e-10
3.819999999999999840e+00 3.132490000000000212e-10
3.839999999999999858e+00 3.046449999999999856e-10
3.859999999999999876e+00 2.962720000000000187e-10
3.879999999999999893e+00 2.881220000000000004e-10
3.899999999999999911e+00 2.801899999999999909e-10
3.919999999999999929e+00 2.724709999999999993e-10
3.939999999999999947e+00 2.649580000000000171e-10
3.959999999999999964e+00 2.576470000000000099e-10
3.979999999999999982e+00 2.505319999999999782e-10
4.000000000000000000e+00 2.436089999999999908e-10
4.019999999999999574e+00 2.368709999999999878e-10
4.040000000000000036e+00 2.303140000000000124e-10
4.059999999999999609e+00 2.239329999999999959e-10
4.080000000000000071e+00 2.177249999999999900e-10
4.099999999999999645e+00 2.116830000000000123e-10
4.120000000000000107e+00 2.058040000000000112e-10
4.139999999999999680e+00 2.000840000000000041e-10
4.160000000000000142e+00 1.945179999999999997e-10
4.179999999999999716e+00 1.891019999999999897e-10
4.200000000000000178e+00 1.838329999999999999e-10
4.219999999999999751e+00 1.787059999999999876e-10
4.240000000000000213e+00 1.737169999999999958e-10
4.259999999999999787e+00 1.688640000000000075e-10
4.280000000000000249e+00 1.641420000000000056e-10
4.299999999999999822e+00 1.595479999999999902e-10
4.320000000000000284e+00 1.550780000000000046e-10
4.339999999999999858e+00 1.507300000000000058e-10
4.360000000000000320e+00 1.465000000000000111e-10
4.379999999999999893e+00 1.423849999999999948e-10
4.400000000000000355e+00 1.383820000000000087e-10
4.419999999999999929e+00 1.344880000000000013e-10
4.440000000000000391e+00 1.306989999999999899e-10
4.459999999999999964e+00 1.270139999999999917e-10
4.480000000000000426e+00 1.234289999999999984e-10
4.500000000000000000e+00 1.199430000000000014e-10
4.519999999999999574e+00 1.165510000000000094e-10
4.540000000000000036e+00 1.132520000000000009e-10
4.559999999999999609e+00 1.100430000000000019e-10
4.580000000000000071e+00 1.069219999999999954e-10
4.599999999999999645e+00 1.038870000000000027e-10
4.620000000000000107e+00 1.009349999999999983e-10
4.639999999999999680e+00 9.806340000000000642e-11
4.660000000000000142e+00 9.527079999999999427e-11
4.679999999999999716e+00 9.255499999999999730e-11
4.700000000000000178e+00 8.991390000000000525e-11
4.719999999999999751e+00 8.734539999999999494e-11
4.740000000000000213e+00 8.484759999999999401e-11
4.769999999999999574e+00 8.241860000000000426e-11
4.790000000000000036e+00 8.005659999999999474e-11
4.809999999999999609e+00 7.775979999999999911e-11
4.830000000000000071e+00 7.552639999999999936e-11
4.849999999999999645e+00 7.335469999999999640e-11
4.870000000000000107e+00 7.124320000000000323e-11
4.889999999999999680e+00 6.919010000000000181e-11
4.910000000000000142e+00 6.719390000000000513e-11
4.929999999999999716e+00 6.525299999999999428e-11
4.950000000000000178e+00 6.336600000000000121e-11
4.969999999999999751e+00 6.153150000000000615e-11
4.990000000000000213e+00 5.974790000000000313e-11
5.009999999999999787e+00 5.801399999999999736e-11
5.030000000000000249e+00 5.632830000000000183e-11
5.049999999999999822e+00 5.468970000000000192e-11
5.070000000000000284e+00 5.309669999999999770e-11
5.089999999999999858e+00 5.154829999999999998e-11
5.110000000000000320e+00 5.004310000000000191e-11
5.129999999999999893e+00 4.858010000000000138e-11
5.150000000000000355e+00 4.715799999999999757e-11
5.169999999999999929e+00 4.577580000000000130e-11
5.190000000000000391e+00 4.443229999999999839e-11
5.209999999999999964e+00 4.312659999999999922e-11
5.230000000000000426e+00 4.185760000000000210e-11
5.250000000000000000e+00 4.062429999999999846e-11
5.269999999999999574e+00 3.942569999999999911e-11
5.290000000000000036e+00 3.826090000000000149e-11
5.309999999999999609e+00 3.712900000000000305e-11
5.330000000000000071e+00 3.602910000000000124e-11
5.349999999999999645e+00 3.496020000000000041e-11
5.370000000000000107e+00 3.392159999999999715e-11
5.389999999999999680e+00 3.291250000000000138e-11
5.410000000000000142e+00 3.193189999999999806e-11
5.429999999999999716e+00 3.097920000000000274e-11
5.450000000000000178e+00 3.005359999999999949e-11
5.469999999999999751e+00 2.915429999999999826e-11
5.490000000000000213e+00 2.828059999999999887e-11
5.509999999999999787e+00 2.743190000000000068e-11
5.530000000000000249e+00 2.660730000000000114e-11
5.549999999999999822e+00 2.580629999999999920e-11
5.570000000000000284e+00 2.502830000000000070e-11
5.589999999999999858e+00 2.427249999999999942e-11
5.610000000000000320e+00 2.353840000000000076e-11
5.629999999999999893e+00 2.282530000000000130e-11
5.650000000000000355e+00 2.213279999999999956e-11
5.669999999999999929e+00 2.146019999999999857e-11
5.690000000000000391e+00 2.080690000000000094e-11
5.709999999999999964e+00 2.017249999999999871e-11
5.730000000000000426e+00 1.955640000000000096e-11
5.750000000000000000e+00 1.895810000000000017e-11
5.769999999999999574e+00 1.837720000000000130e-11
5.790000000000000036e+00 1.781300000000000094e-11
5.809999999999999609e+00 1.726529999999999995e-11
5.830000000000000071e+00 1.673340000000000138e-11
5.849999999999999645e+00 1.621700000000000007e-11
5.870000000000000107e+00 1.571570000000000098e-11
5.889999999999999680e+00 1.522899999999999983e-11
5.910000000000000142e+00 1.475650000000000159e-11
5.929999999999999716e+00 1.429779999999999992e-11
5.950000000000000178e+00 1.385259999999999936e-11
5.969999999999999751e+00 1.342040000000000045e-11
5.990000000000000213e+00 1.300089999999999966e-11
6.009999999999999787e+00 1.259370000000000035e-11
6.030000000000000249e+00 1.219850000000000058e-11
6.049999999999999822e+00 1.181500000000000004e-11
6.070000000000000284e+00 1.144269999999999930e-11
6.089999999999999858e+00 1.108150000000000039e-11
6.110000000000000320e+00 1.073100000000000022e-11
6.129999999999999893e+00 1.039090000000000008e-11
6.150000000000000355e+00 1.006089999999999967e-11
6.169999999999999929e+00 9.740700000000000288e-12
6.190000000000000391e+00 9.430040000000000479e-12
6.209999999999999964e+00 9.128649999999999478e-12
6.230000000000000426e+00 8.836259999999999751e-12
6.250000000000000000e+00 8.552620000000000770e-12
6.269999999999999574e+00 8.277489999999999700e-12
6.290000000000000036e+00 8.010619999999999243e-12
6.309999999999999609e+00 7.751769999999999795e-12
6.330000000000000071e+00 7.500709999999999449e-12
6.349999999999999645e+00 7.257239999999999882e-12
6.370000000000000107e+00 7.021119999999999874e-12
6.389999999999999680e+00 6.792140000000000177e-12
6.410000000000000142e+00 6.570110000000000163e-12
6.429999999999999716e+00 6.354829999999999893e-12
6.450000000000000178e+00 6.146100000000000236e-12
6.469999999999999751e+00 5.943719999999999638e-12
6.490000000000000213e+00 5.747530000000000249e-12
6.509999999999999787e+00 5.557349999999999943e-12
6.530000000000000249e+00 5.372980000000000396e-12
6.549999999999999822e+00 5.194279999999999956e-12
6.570000000000000284e+00 5.021079999999999846e-12
6.589999999999999858e+00 4.853219999999999792e-12
6.610000000000000320e+00 4.690540000000000327e-12
6.629999999999999893e+00 4.532899999999999800e-12
6.650000000000000355e+00 4.380140000000000358e-12
6.669999999999999929e+00 4.232129999999999658e-12
6.690000000000000391e+00 4.088730000000000088e-12
6.709999999999999964e+00 3.949789999999999874e-12
6.730000000000000426e+00 3.815210000000000260e-12
6.750000000000000000e+00 3.684830000000000163e-12
6.769999999999999574e+00 3.558550000000000018e-12
6.790000000000000036e+00 3.436239999999999906e-12
6.809999999999999609e+00 3.317790000000000144e-12
6.830000000000000071e+00 3.203080000000000120e-12
6.849999999999999645e+00 3.092000000000000153e-12
6.870000000000000107e+00 2.984449999999999870e-12
6.889999999999999680e+00 2.880319999999999989e-12
6.910000000000000142e+00 2.779510000000000139e-12
6.929999999999999716e+00 2.681919999999999946e-12
6.950000000000000178e+00 2.587449999999999845e-12
6.969999999999999751e+00 2.496020000000000102e-12
6.990000000000000213e+00 2.407540000000000059e-12
7.009999999999999787e+00 2.321910000000000150e-12
7.030000000000000249e+00 2.239049999999999835e-12
7.049999999999999822e+00 2.158880000000000188e-12
7.070000000000000284e+00 2.081310000000000145e-12
7.089999999999999858e+00 2.006270000000000094e-12
7.110000000000000320e+00 1.933690000000000013e-12
7.129999999999999893e+00 1.863490000000000171e-12
7.150000000000000355e+00 1.795590000000000026e-12
7.169999999999999929e+00 1.729930000000000082e-12
7.190000000000000391e+00 1.666439999999999915e-12
7.209999999999999964e+00 1.605060000000000029e-12
7.230000000000000426e+00 1.545720000000000001e-12
7.259999999999999787e+00 1.488350000000000014e-12
7.280000000000000249e+00 1.432910000000000000e-12
7.299999999999999822e+00 1.379320000000000024e-12
7.320000000000000284e+00 1.327540000000000016e-12
7.339999999999999858e+00 1.277510000000000077e-12
7.360000000000000320e+00 1.229169999999999901e-12
7.379999999999999893e+00 1.182469999999999908e-12
7.400000000000000355e+00 1.137359999999999912e-12
7.419999999999999929e+00 1.093800000000000045e-12
7.440000000000000391e+00 1.051730000000000003e-12
7.459999999999999964e+00 1.011109999999999919e-12
7.480000000000000426e+00 9.718919999999999547e-13
7.500000000000000000e+00 9.340340000000000972e-13
7.519999999999999574e+00 8.974950000000000042e-13
7.540000000000000036e+00 8.622319999999999958e-13
7.559999999999999609e+00 8.282040000000000322e-13
7.580000000000000071e+00 7.953750000000000314e-13
7.599999999999999645e+00 7.637050000000000260e-13
7.620000000000000107e+00 7.331590000000000065e-13
7.639999999999999680e+00 7.036990000000000492e-13
7.660000000000000142e+00 6.752940000000000304e-13
7.679999999999999716e+00 6.479079999999999692e-13
7.700000000000000178e+00 6.215100000000000447e-13
7.719999999999999751e+00 5.960669999999999884e-13
7.740000000000000213e+00 5.715500000000000233e-13
7.759999999999999787e+00 5.479280000000000256e-13
7.780000000000000249e+00 5.251739999999999592e-13
7.799999999999999822e+00 5.032579999999999746e-13
7.820000000000000284e+00 4.821540000000000072e-13
7.839999999999999858e+00 4.618350000000000208e-13
7.860000000000000320e+00 4.422760000000000231e-13
7.879999999999999893e+00 4.234529999999999931e-13
7.900000000000000355e+00 4.053409999999999891e-13
7.919999999999999929e+00 3.879159999999999901e-13
7.940000000000000391e+00 3.711569999999999906e-13
7.959999999999999964e+00 3.550409999999999914e-13
7.980000000000000426e+00 3.395469999999999869e-13
8.000000000000000000e+00 3.246549999999999934e-13
8.019999999999999574e+00 3.103440000000000052e-13
8.039999999999999147e+00 2.965950000000000100e-13
8.060000000000000497e+00 2.833900000000000173e-13
8.080000000000000071e+00 2.707089999999999929e-13
8.099999999999999645e+00 2.585359999999999901e-13
8.119999999999999218e+00 2.468530000000000186e-13
8.140000000000000568e+00 2.356439999999999802e-13
8.160000000000000142e+00 2.248910000000000108e-13
8.179999999999999716e+00 2.145810000000000022e-13
8.199999999999999289e+00 2.046970000000000112e-13
8.220000000000000639e+00 1.952250000000000088e-13
8.240000000000000213e+00 1.861519999999999877e-13
8.259999999999999787e+00 1.774620000000000015e-13
8.279999999999999361e+00 1.691429999999999892e-13
8.300000000000000711e+00 1.611809999999999975e-13
8.320000000000000284e+00 1.535650000000000126e-13
8.339999999999999858e+00 1.462810000000000055e-13
8.359999999999999432e+00 1.393190000000000095e-13
8.380000000000000782e+00 1.326659999999999923e-13
8.400000000000000355e+00 1.263130000000000092e-13
8.419999999999999929e+00 1.202470000000000025e-13
8.439999999999999503e+00 1.144599999999999990e-13
8.460000000000000853e+00 1.089390000000000041e-13
8.480000000000000426e+00 1.036770000000000034e-13
8.500000000000000000e+00 9.866310000000000295e-14
