My Header
 has 3 lines r
Wavelenth (micron)  Kappa (m^2/kg)
1.000000000000000056e-01 1.078000000000000000e+04
9.907952953719419142e-02 1.105497250569254902e+04
9.816753173311736080e-02 1.132741397068936203e+04
9.726392859944853198e-02 1.162122176426458464e+04
9.636864286572607852e-02 1.193515939792018253e+04
9.548159797274025085e-02 1.224382720125676497e+04
9.460271806598619104e-02 1.243384217718684886e+04
9.373192798917737156e-02 1.262210812138858091e+04
9.286915327781858354e-02 1.279376228482358965e+04
9.201432015283840526e-02 1.295070100286824891e+04
9.116735551427995743e-02 1.310283194728883791e+04
9.032818693504984786e-02 1.317563080229940169e+04
8.949674265472473689e-02 1.324775956535232945e+04
8.867295157341466283e-02 1.328668627830510195e+04
8.785674324568328031e-02 1.329875619984694640e+04
8.704804787452362358e-02 1.331268270644729273e+04
8.624679630538961694e-02 1.335713830646985843e+04
8.545292002028220812e-02 1.340118470582515693e+04
8.466635113189044382e-02 1.348004785057731169e+04
8.388702237778593307e-02 1.358463413945269895e+04
8.311486711467111488e-02 1.369494936476776456e+04
8.234981931268030297e-02 1.388081711004914905e+04
8.159181354973313316e-02 1.406497399763534122e+04
8.084078500594024663e-02 1.429181245643247166e+04
8.009666945806022398e-02 1.454726740642450932e+04
7.935940327400761718e-02 1.481019787340526636e+04
7.862892340741142738e-02 1.513007446581802105e+04
7.790516739222400067e-02 1.546875550984095753e+04
7.718807333737914833e-02 1.583475880326550032e+04
7.647757992149972761e-02 1.621676612970471615e+04
7.577362638765361424e-02 1.659240852602580344e+04
7.507615253815842771e-02 1.694381126465263515e+04
7.438509872943364909e-02 1.729197944486491178e+04
7.370040586690031204e-02 1.755014282794882092e+04
7.302201539992748958e-02 1.775517965274207745e+04
7.234986931682564626e-02 1.791749499678692882e+04
7.168391013988566207e-02 1.782864659234374994e+04
7.102408092046375021e-02 1.774061601122015054e+04
7.037032523411161644e-02 1.748621250325465371e+04
6.972258717575123554e-02 1.714455730647753808e+04
6.908081135489441138e-02 1.678660263590975956e+04
6.844494289090601036e-02 1.633033430703822341e+04
6.781492740831095156e-02 1.587826579336511350e+04
6.719071103214424578e-02 1.544236317764175874e+04
6.657224038334415284e-02 1.501635831200520079e+04
6.595946257418738856e-02 1.459763427423239045e+04
6.535232520376653420e-02 1.419798932960696220e+04
6.475077635350910688e-02 1.380202299865293935e+04
6.415476458273759730e-02 1.343690472712419250e+04
6.356423892427089106e-02 1.308731482315982612e+04
6.297914888006567180e-02 1.274665120549413768e+04
6.239944441689820182e-02 1.243183572037916929e+04
6.182507596208572376e-02 1.211991801881700667e+04
6.125599439924746259e-02 1.183737530993644577e+04
6.069215106410440902e-02 1.156820891553256479e+04
6.013349774031784278e-02 1.130641195989407061e+04
5.957998665536624883e-02 1.106428112658191094e+04
5.903157047645996025e-02 1.082437903607172302e+04
5.848820230649375007e-02 1.056787190332806313e+04
5.794983568003636565e-02 1.030680184424323852e+04
5.741642455935715844e-02 1.009431968398847494e+04
5.688792333048909439e-02 1.002936152088613198e+04
5.636428679932832531e-02 9.965001278488327443e+03
5.584547018776935684e-02 9.874917442043533811e+03
5.533142912987591006e-02 9.776928365382595075e+03
5.482211966808710202e-02 9.676301742521138294e+03
5.431749824945830696e-02 9.566575124992134079e+03
5.381752172193697559e-02 9.457858508567316676e+03
5.332214733067247581e-02 9.349776226821719320e+03
5.283133271435983686e-02 9.242579905712946129e+03
5.234503590161748710e-02 9.135564725961397926e+03
5.186321530739800012e-02 9.027471708004908578e+03
5.138582972943202265e-02 8.920373654351064033e+03
5.091283834470491237e-02 8.814228753051813328e+03
5.044420070596585676e-02 8.709052239988910515e+03
4.997987673826895932e-02 8.604969204293989606e+03
4.951982673554644609e-02 8.502135446672811668e+03
4.906401135721314560e-02 8.400248243416332116e+03
4.861239162480231191e-02 8.298345097896193693e+03
4.816492891863251996e-02 8.197228921422765779e+03
4.772158497450509212e-02 8.094992898871348189e+03
4.728232188043200029e-02 7.989360103417332539e+03
4.684710207339385507e-02 7.884699626644505770e+03
4.641588833612779463e-02 7.782022305851724923e+03
4.598864379394481533e-02 7.680498055666420441e+03
4.556533191157657176e-02 7.582559473125200384e+03
4.514591649005110507e-02 7.490646058950069346e+03
4.473036166359720123e-02 7.399578680603770408e+03
4.431863189657758023e-02 7.301378684655866891e+03
4.391069198044994515e-02 7.202683543657245536e+03
4.350650703075626541e-02 7.103785168707280718e+03
4.310604248413962142e-02 7.003830249664478288e+03
4.270926409538861046e-02 6.904795386127591883e+03
4.231613793450882816e-02 6.823705034800444992e+03
4.192663038382150875e-02 6.745891766513615948e+03
4.154070813508869281e-02 6.674428121686763916e+03
4.115833818666482513e-02 6.612775047486265976e+03
4.077948784067485233e-02 6.551689471623197278e+03
4.040412470021795266e-02 6.493512705846184872e+03
4.003221666659721734e-02 6.436160340044648365e+03
3.966373193657479063e-02 6.379943437843932770e+03
3.929863899965214263e-02 6.325151295467547243e+03
3.893690663537565516e-02 6.270863498577674363e+03
3.857850391066675044e-02 6.219618442574537767e+03
3.822340017717669458e-02 6.169095553663350984e+03
3.787156506866572181e-02 6.119569919389746246e+03
3.752296849840636855e-02 6.071232054320273164e+03
3.717758065661060790e-02 6.023339125021115251e+03
3.683537200788070121e-02 5.974483283615424625e+03
3.649631328868353786e-02 5.925971867010414826e+03
3.616037550484813706e-02 5.881517424340654543e+03
3.582752992908633943e-02 5.842046385588650992e+03
3.549774809853620261e-02 5.802938666089723483e+03
3.517100181232796913e-02 5.825595126917184643e+03
3.484726312917259261e-02 5.851247319218712619e+03
3.452650436497233660e-02 5.854183647749138800e+03
3.420869809045341131e-02 5.830830342387302153e+03
3.389381712882037073e-02 5.807691997303410062e+03
3.358183455343217994e-02 5.749334862381084349e+03
3.327272368549952231e-02 5.690422250445260943e+03
3.296645809180350634e-02 5.634512286090300222e+03
3.266301158243520991e-02 5.581770488654653491e+03
3.236235820855605516e-02 5.529514163885953167e+03
3.206447226017888202e-02 5.478150389686014023e+03
3.176932826396937359e-02 5.427263493787822881e+03
3.147690098106771528e-02 5.377274787734770143e+03
3.118716540493035594e-02 5.328173884430480939e+03
3.090009675919159690e-02 5.279525752550184734e+03
3.061567049554482153e-02 5.231407007349777814e+03
3.033386229164337922e-02 5.183731180986013896e+03
3.005464804902062761e-02 5.136977418662135278e+03
2.977800389102914710e-02 5.091098114019963759e+03
2.950390616079906145e-02 5.045646150414849217e+03
2.923233141921496164e-02 5.000774467896488204e+03
2.896325644291158213e-02 4.956315815961872431e+03
2.869665822228788243e-02 4.912588468826814278e+03
2.843251395953940233e-02 4.869536776345340513e+03
2.817080106670869985e-02 4.827156035963354043e+03
2.791149716375387890e-02 4.790372473735936182e+03
2.765458007663464113e-02 4.753927493333986604e+03
2.740002783541624007e-02 4.718031976900525478e+03
2.714781867239066115e-02 4.682634199633776916e+03
2.689793102021522525e-02 4.647363181325524238e+03
2.665034351006826188e-02 4.609776438844839504e+03
2.640503496982179663e-02 4.572535671226619343e+03
2.616198442223105491e-02 4.535615368107925860e+03
2.592117108314056020e-02 4.499018818580145307e+03
2.568257435970690630e-02 4.463120127208283520e+03
2.544617384863766263e-02 4.431195955627992589e+03
2.521194933444673852e-02 4.399565636617593555e+03
2.497988078772558906e-02 4.369494957531029286e+03
2.474994836343047053e-02 4.340542291302892409e+03
2.452213239918540205e-02 4.312721281958582040e+03
2.429641341360076756e-02 4.292120587139655072e+03
2.407277210460739489e-02 4.271709515631670001e+03
2.385118934780592823e-02 4.270529078675907840e+03
2.363164619483150083e-02 4.280983514531832952e+03
2.341412387173330209e-02 4.303412174999514718e+03
2.319860377736923315e-02 4.406002324865469745e+03
2.298506748181519677e-02 4.507648162704160313e+03
2.277349672478910445e-02 4.549075835375765564e+03
2.256387341408937208e-02 4.461125637986851871e+03
2.235617962404778600e-02 4.371660253650004051e+03
2.215039759399662495e-02 4.269899909119209951e+03
2.194650972674983685e-02 4.169076238502666456e+03
2.174449858709831193e-02 4.110410983961936836e+03
2.154434690031884619e-02 4.073435170340027980e+03
2.134603755069698974e-02 4.038171863026694155e+03
2.114955358006338770e-02 4.009906598036245668e+03
2.095487818634361385e-02 3.981901506461268127e+03
2.076199472212138242e-02 3.962808252141487174e+03
2.057088669321495422e-02 3.947940722558774723e+03
2.038153775726667116e-02 3.935382749694779250e+03
2.019393172234541789e-02 3.932153730160850500e+03
2.000805254556206614e-02 3.928954432797970185e+03
1.982388433169749928e-02 3.903628473196796222e+03
1.964141133184343566e-02 3.869078323510645987e+03
1.946061794205562051e-02 3.833997491106868893e+03
1.928148870201951137e-02 3.796056642608909442e+03
1.910400829372818285e-02 3.758465028414711924e+03
1.892816154017245081e-02 3.722053440339746430e+03
1.875393340404299392e-02 3.686299914594942493e+03
1.858130898644450718e-02 3.652462205829477625e+03
1.841027352562161351e-02 3.624218558135203693e+03
1.824081239569650889e-02 3.596234884875573243e+03
1.807291110541829962e-02 3.583008261970946478e+03
1.790655529692377484e-02 3.574975629981833663e+03
1.774173074450960050e-02 3.562912659759328108e+03
1.757842335341585141e-02 3.538707018786934441e+03
1.741661915862070809e-02 3.514724183590025859e+03
1.725630432364622796e-02 3.495772209091981040e+03
1.709746513937519113e-02 3.478507080366868649e+03
1.694008802287872220e-02 3.458227295276556561e+03
1.678415951625481656e-02 3.429583248781609200e+03
1.662966628547747974e-02 3.401202862273999926e+03
1.647659511925648329e-02 3.377631634619127908e+03
1.632493292790762607e-02 3.355552702580517234e+03
1.617466674223337619e-02 3.333764998207933331e+03
1.602578371241385191e-02 3.312392298910981026e+03
1.587827110690793672e-02 3.291216328998159952e+03
1.573211631136462590e-02 3.270163981677184893e+03
1.558730682754426097e-02 3.249287649105354831e+03
1.544383027224980297e-02 3.228204863021807341e+03
1.530167437626788092e-02 3.206433965735863694e+03
1.516082698331960854e-02 3.184863463128924650e+03
1.502127604902105812e-02 3.163743554569216030e+03
1.488300963985329621e-02 3.142873153185403226e+03
1.474601593214191174e-02 3.122305009228083236e+03
1.461028321104590640e-02 3.102148679988997173e+03
1.447579986955596122e-02 3.082177883806944010e+03
1.434255440750181569e-02 3.061322277173539533e+03
1.421053543056890849e-02 3.040456055895389909e+03
1.407973164932396770e-02 3.020183828257308505e+03
1.395013187824961816e-02 3.000840578843226467e+03
1.382172503478787222e-02 2.981675378326548071e+03
1.369450013839241392e-02 2.968216118046355405e+03
1.356844630958961746e-02 2.955779234873577934e+03
1.344355276904818028e-02 2.949949882743887883e+03
1.331980883665738642e-02 2.955189853822325404e+03
1.319720393061375556e-02 2.960381592514726890e+03
1.307572756651620947e-02 2.933934671960119886e+03
1.295536935646946983e-02 2.903454085610395850e+03
1.283611900819577392e-02 2.880254332352909842e+03
1.271796632415472979e-02 2.868165039988546596e+03
1.260090120067130191e-02 2.856187025989560425e+03
1.248491362707177844e-02 2.844058032187817389e+03
1.236999368482776494e-02 2.836487803505857755e+03
1.225613154670798788e-02 2.844156413182078722e+03
1.214331747593791651e-02 2.854225501969125617e+03
1.203154182536717194e-02 2.864201907768013825e+03
1.192079503664453949e-02 2.971287224592529128e+03
1.181106763940060513e-02 3.270631264442210977e+03
1.170235025043790678e-02 3.339854608232066767e+03
1.159463357292855011e-02 3.156514042674550637e+03
1.148790839561917611e-02 2.973018152319214551e+03
1.138216559204331332e-02 2.931587628639360901e+03
1.127739611974091366e-02 2.899511249825002324e+03
1.117359101948509070e-02 2.889482256073262761e+03
1.107074141451600685e-02 2.905992960081612182e+03
1.096883850978177741e-02 2.922351687936363305e+03
1.086787359118636734e-02 2.878730726743773630e+03
1.076783802484442346e-02 2.833041405577982005e+03
1.066872325634296223e-02 2.787657665889347300e+03
1.057052081000983169e-02 2.742562651583030856e+03
1.047322228818895438e-02 2.697882723563603577e+03
1.037681937052217958e-02 2.702152047748370933e+03
1.028130381323781248e-02 2.707360530318407655e+03
1.018666744844562953e-02 2.708213426517864718e+03
1.009290218343843366e-02 2.704590037144464986e+03
1.000000000000000021e-02 2.701000000000000000e+03
