# My Header 
#  has 3 lines 
#  Wavelenth (micron)  Kappa (m^2/kg)
1.000000000000000000e+03 3.454156088642401645e-02
9.886000000000000227e+02 3.540087544433783567e-02
9.772000000000000455e+02 3.626019000225166877e-02
9.661000000000000227e+02 3.709689101916775061e-02
9.550000000000000000e+02 3.793359203608384633e-02
9.441000000000000227e+02 3.875521735900143427e-02
9.332999999999999545e+02 3.972421405557156199e-02
9.226000000000000227e+02 4.068423856050674969e-02
9.120000000000000000e+02 4.163529087380705984e-02
9.016000000000000227e+02 4.256839880383753855e-02
8.912999999999999545e+02 4.349253454223312582e-02
8.810000000000000000e+02 4.458787647604262744e-02
8.710000000000000000e+02 4.565131524673145258e-02
8.610000000000000000e+02 4.671475401742028466e-02
8.511000000000000227e+02 4.776755840040224771e-02
8.413999999999999773e+02 4.879909400797042413e-02
8.317999999999999545e+02 5.001434120460690469e-02
8.222000000000000455e+02 5.122958840124335056e-02
8.127999999999999545e+02 5.241951794794994651e-02
8.035000000000000000e+02 5.359678866969154465e-02
7.942999999999999545e+02 5.476140056646816578e-02
7.852000000000000455e+02 5.613289950320276417e-02
7.762000000000000455e+02 5.748932702305020737e-02
7.673999999999999773e+02 5.881561170912323611e-02
7.586000000000000227e+02 6.014189639519625097e-02
7.498999999999999773e+02 6.145310966438214534e-02
7.412999999999999545e+02 6.298876123094816759e-02
7.327999999999999545e+02 6.450655638394950375e-02
7.243999999999999773e+02 6.600649512338611913e-02
7.161000000000000227e+02 6.748857744925795821e-02
7.078999999999999773e+02 6.895280336156511813e-02
6.997999999999999545e+02 7.067500082907546277e-02
6.917999999999999545e+02 7.237593659945605606e-02
6.838999999999999773e+02 7.405561067270685638e-02
6.761000000000000227e+02 7.571402304882791923e-02
6.682999999999999545e+02 7.737243542494894044e-02
6.607000000000000455e+02 7.929998074938569841e-02
6.531000000000000227e+02 8.122752607382248413e-02
6.457000000000000455e+02 8.310434652130038735e-02
6.382999999999999545e+02 8.498116696877829057e-02
6.310000000000000000e+02 8.683262497777677336e-02
6.237000000000000455e+02 8.902460053645716576e-02
6.166000000000000227e+02 9.115652197024214087e-02
6.095000000000000000e+02 9.328844340402718538e-02
6.026000000000000227e+02 9.536031071291685424e-02
5.957000000000000455e+02 9.743217802180648146e-02
5.887999999999999545e+02 9.989151010981567325e-02
5.821000000000000227e+02 1.022795572097665862e-01
5.753999999999999773e+02 1.046676043097175268e-01
5.688999999999999773e+02 1.069843664216102441e-01
5.622999999999999545e+02 1.093367710275320037e-01
5.558999999999999773e+02 1.120599248044674839e-01
5.495000000000000000e+02 1.147830785814029225e-01
5.432999999999999545e+02 1.174211338028091633e-01
5.370000000000000000e+02 1.201017383019800239e-01
5.308999999999999773e+02 1.226972442456215756e-01
5.247999999999999545e+02 1.257739009686536791e-01
5.187999999999999545e+02 1.288001206962263168e-01
5.128999999999999773e+02 1.317759034283393083e-01
5.070000000000000000e+02 1.347516861604522997e-01
5.011999999999999886e+02 1.376770318971057561e-01
4.955000000000000000e+02 1.411071307223272508e-01
4.898000000000000114e+02 1.445372295475487456e-01
4.841999999999999886e+02 1.479071512003978794e-01
4.786000000000000227e+02 1.512770728532470133e-01
4.731999999999999886e+02 1.545266401613515639e-01
4.676999999999999886e+02 1.584578467685542613e-01
4.623999999999999773e+02 1.622461004082223490e-01
4.571000000000000227e+02 1.660343540478903535e-01
4.518999999999999773e+02 1.697511312037911224e-01
4.466999999999999886e+02 1.734679083596919469e-01
4.416000000000000227e+02 1.778064315929556993e-01
4.365000000000000000e+02 1.821449548262193963e-01
4.315000000000000000e+02 1.863984089764780527e-01
4.266000000000000227e+02 1.905667940437313912e-01
4.216999999999999886e+02 1.947351791109848684e-01
4.168999999999999773e+02 1.995704164981175477e-01
4.121000000000000227e+02 2.044056538852502825e-01
4.073999999999999773e+02 2.091401571601510523e-01
4.026999999999999886e+02 2.138746604350519609e-01
3.981000000000000227e+02 2.185084295977206548e-01
3.936000000000000227e+02 2.239056634935371326e-01
3.890000000000000000e+02 2.294228359203716594e-01
3.846000000000000227e+02 2.347001312851699495e-01
3.801999999999999886e+02 2.399774266499681286e-01
3.758000000000000114e+02 2.452547220147663076e-01
3.715000000000000000e+02 2.513993721050075125e-01
3.673000000000000114e+02 2.574011233559406753e-01
3.631000000000000227e+02 2.634028746068740046e-01
3.588999999999999773e+02 2.694046258578072228e-01
3.548000000000000114e+02 2.752634782694324267e-01
3.508000000000000114e+02 2.820963997284928193e-01
3.466999999999999886e+02 2.891001442240295760e-01
3.428000000000000114e+02 2.957622426466132159e-01
3.388000000000000114e+02 3.025951641056734975e-01
3.350000000000000000e+02 3.090864394917807179e-01
3.311000000000000227e+02 3.169702775090693647e-01
3.273000000000000114e+02 3.246519658336072811e-01
3.236000000000000227e+02 3.321315044653941895e-01
3.198999999999999773e+02 3.396110430971807648e-01
3.161999999999999886e+02 3.470905817289677842e-01
3.126000000000000227e+02 3.557596495730601105e-01
3.090000000000000000e+02 3.644287174171521593e-01
3.055000000000000000e+02 3.728569778211309194e-01
3.020000000000000000e+02 3.812852382251095129e-01
2.985000000000000000e+02 3.897134986290879954e-01
2.951000000000000227e+02 3.994477233829993312e-01
2.916999999999999886e+02 4.091819481369108336e-01
2.883999999999999773e+02 4.186298721627662589e-01
2.851000000000000227e+02 4.280777961886214622e-01
2.818000000000000114e+02 4.375257202144766655e-01
2.786000000000000227e+02 4.484841683262276724e-01
2.753999999999999773e+02 4.594426164379786237e-01
2.723000000000000114e+02 4.700586130462374168e-01
2.691999999999999886e+02 4.806746096544963764e-01
2.661000000000000227e+02 4.912906062627549475e-01
2.630000000000000000e+02 5.038581447911522071e-01
2.600000000000000000e+02 5.160202788508918559e-01
2.570000000000000000e+02 5.281824129106315047e-01
2.540999999999999943e+02 5.399391425017129320e-01
2.511999999999999886e+02 5.516958720927943594e-01
2.483000000000000114e+02 5.657017915953695963e-01
2.455000000000000000e+02 5.792247483564768595e-01
2.426999999999999886e+02 5.927477051175842337e-01
2.399000000000000057e+02 6.062706618786913859e-01
2.370999999999999943e+02 6.197936186397986491e-01
2.344000000000000057e+02 6.354450117243590768e-01
2.316999999999999886e+02 6.510964048089195044e-01
2.290999999999999943e+02 6.661681166681261423e-01
2.265000000000000000e+02 6.812398285273322251e-01
2.239000000000000057e+02 6.963115403865384190e-01
2.213000000000000114e+02 7.140705604133424922e-01
2.188000000000000114e+02 7.311465412083461013e-01
2.163000000000000114e+02 7.482225220033498214e-01
2.138000000000000114e+02 7.652985027983536526e-01
2.113000000000000114e+02 7.823744835933574837e-01
2.089000000000000057e+02 8.020876419528810697e-01
2.065000000000000000e+02 8.218008003124053218e-01
2.041999999999999886e+02 8.406925770736164427e-01
2.018000000000000114e+02 8.604057354331398066e-01
1.995000000000000000e+02 8.792975121943511496e-01
1.971999999999999886e+02 9.018103819974696567e-01
1.950000000000000000e+02 9.233444313743659482e-01
1.928000000000000114e+02 9.448784807512617956e-01
1.905000000000000000e+02 9.673913505543799696e-01
1.884000000000000057e+02 9.879465795050533794e-01
1.861999999999999886e+02 1.013331628141118212e+00
1.840999999999999943e+02 1.037562810930088730e+00
1.820000000000000000e+02 1.061793993719060136e+00
1.799000000000000057e+02 1.086025176508030432e+00
1.778000000000000114e+02 1.110256359297001394e+00
1.758000000000000114e+02 1.138092820300887542e+00
1.738000000000000114e+02 1.165929281304773468e+00
1.718000000000000114e+02 1.193765742308660283e+00
1.698000000000000114e+02 1.221602203312546431e+00
1.679000000000000057e+02 1.248046841266238882e+00
1.660000000000000000e+02 1.279481621627163168e+00
1.640999999999999943e+02 1.310916401988088120e+00
1.621999999999999886e+02 1.342351182349012406e+00
1.603000000000000114e+02 1.373785962709936470e+00
1.585000000000000000e+02 1.403566280946601408e+00
1.566999999999999886e+02 1.439008107447284912e+00
1.549000000000000057e+02 1.474449933947966196e+00
1.530999999999999943e+02 1.509891760448649034e+00
1.514000000000000057e+02 1.543364596588181703e+00
1.495999999999999943e+02 1.578806423088864319e+00
1.479000000000000057e+02 1.619278181946710360e+00
1.461999999999999886e+02 1.659749940804556401e+00
1.445000000000000000e+02 1.700221699662401109e+00
1.429000000000000057e+02 1.738312766822727395e+00
1.413000000000000114e+02 1.776403833983052793e+00
1.395999999999999943e+02 1.824346302346004922e+00
1.380000000000000000e+02 1.869468625511135240e+00
1.365000000000000000e+02 1.911770803478445080e+00
1.349000000000000057e+02 1.956893126643576064e+00
1.334000000000000057e+02 1.999195304610885682e+00
1.318000000000000114e+02 2.052910079625817286e+00
1.303000000000000114e+02 2.103267681202317441e+00
1.288000000000000114e+02 2.153625282778817596e+00
1.274000000000000057e+02 2.200625710916883637e+00
1.259000000000000057e+02 2.250983312493381572e+00
1.245000000000000000e+02 2.307760350940827987e+00
1.230000000000000000e+02 2.368592892134521399e+00
1.215999999999999943e+02 2.425369930581966926e+00
1.202000000000000028e+02 2.482146969029411121e+00
1.189000000000000057e+02 2.534868504730610983e+00
1.175000000000000000e+02 2.601591869111637312e+00
1.160999999999999943e+02 2.668315233492660976e+00
1.147999999999999972e+02 2.730272643275041933e+00
1.135000000000000000e+02 2.792230053057421557e+00
1.122000000000000028e+02 2.854187462839801182e+00
1.109000000000000057e+02 2.929338576281622419e+00
1.095999999999999943e+02 3.004489689723443657e+00
1.084000000000000057e+02 3.073859948285122545e+00
1.072000000000000028e+02 3.143230206846803210e+00
1.059000000000000057e+02 3.218381320288622227e+00
1.047000000000000028e+02 3.301858813035808637e+00
1.035000000000000000e+02 3.385336305782991939e+00
1.022999999999999972e+02 3.468813798530177905e+00
1.012000000000000028e+02 3.545334833548429820e+00
1.000000000000000000e+02 3.628812326295616231e+00
9.885999999999999943e+01 3.723788775402279594e+00
9.771999999999999886e+01 3.818765224508941625e+00
9.660999999999999943e+01 3.911242293375956969e+00
9.550000000000000000e+01 4.003719362242973645e+00
9.440999999999999659e+01 4.094530177616887201e+00
9.332999999999999829e+01 4.202303701098997202e+00
9.226000000000000512e+01 4.309079321585901567e+00
9.120000000000000284e+01 4.414857039077604739e+00
9.015999999999999659e+01 4.518638950578895752e+00
8.912999999999999545e+01 4.621422959084983795e+00
8.809999999999999432e+01 4.744742485039470381e+00
8.709999999999999432e+01 4.864470180140912703e+00
8.609999999999999432e+01 4.984197875242358577e+00
8.510999999999999943e+01 5.102728293392790881e+00
8.414000000000000057e+01 5.218864157641192492e+00
8.318000000000000682e+01 5.357287468348830295e+00
8.221999999999999886e+01 5.495710779056473427e+00
8.128000000000000114e+01 5.631250270791039902e+00
8.034999999999999432e+01 5.765347853039069825e+00
7.943000000000000682e+01 5.898003525800555202e+00
7.851999999999999602e+01 6.054499855496000116e+00
7.762000000000000455e+01 6.209276445304679370e+00
7.673999999999999488e+01 6.360613555339834413e+00
7.585999999999999943e+01 6.511950665374985014e+00
7.498999999999999488e+01 6.661568035523375286e+00
7.412999999999999545e+01 6.840357386612785362e+00
7.328000000000000114e+01 7.017067791759291850e+00
7.243999999999999773e+01 7.191699250962897416e+00
7.160999999999999943e+01 7.364251764223602947e+00
7.079000000000000625e+01 7.534725331541413773e+00
6.998000000000000398e+01 7.737317692486067600e+00
6.918000000000000682e+01 7.937408913172149028e+00
6.839000000000000057e+01 8.134998993599660722e+00
6.760999999999999943e+01 8.330087933768593800e+00
6.682999999999999829e+01 8.525176873937523325e+00
6.606999999999999318e+01 8.753569842759063135e+00
6.531000000000000227e+01 8.981962811580592287e+00
6.456999999999999318e+01 9.204345439117357586e+00
6.382999999999999829e+01 9.426728066654115779e+00
6.310000000000000142e+01 9.646105523548486715e+00
6.236999999999999744e+01 9.907827026519097302e+00
6.165999999999999659e+01 1.016237807735352838e+01
6.095000000000000284e+01 1.041692912818795058e+01
6.025999999999999801e+01 1.066430972688620393e+01
5.957000000000000028e+01 1.091169032558445018e+01
5.888000000000000256e+01 1.120768674097058337e+01
5.821000000000000085e+01 1.149510355011364204e+01
5.753999999999999915e+01 1.178252035925670604e+01
5.689000000000000057e+01 1.206135756215668131e+01
5.622999999999999687e+01 1.234448456817820805e+01
5.559000000000000341e+01 1.267359850765978990e+01
5.495000000000000284e+01 1.300271244714137708e+01
5.432999999999999829e+01 1.332154157601416777e+01
5.370000000000000284e+01 1.364551311019135404e+01
5.309000000000000341e+01 1.395919983375973850e+01
5.247999999999999687e+01 1.433090595806096523e+01
5.188000000000000256e+01 1.469651853934084151e+01
5.128999999999999915e+01 1.505603757759940109e+01
5.070000000000000284e+01 1.541555661585794823e+01
5.011999999999999744e+01 1.576898211109517867e+01
4.954999999999999716e+01 1.618454388357755747e+01
4.897999999999999687e+01 1.660010565605993449e+01
4.842000000000000171e+01 1.700837687113033425e+01
4.785999999999999943e+01 1.741664808620074467e+01
4.732000000000000028e+01 1.781033818644721123e+01
4.677000000000000313e+01 1.828610464273826253e+01
4.624000000000000199e+01 1.874457050061874241e+01
4.571000000000000085e+01 1.920303635849921875e+01
4.518999999999999773e+01 1.965285191717440938e+01
4.467000000000000171e+01 2.010266747584958935e+01
4.415999999999999659e+01 2.062831514183037740e+01
4.364999999999999858e+01 2.115396280781115124e+01
4.314999999999999858e+01 2.166930365681193038e+01
4.265999999999999659e+01 2.217433768883269352e+01
4.217000000000000171e+01 2.267937172085344244e+01
4.168999999999999773e+01 2.325900743881823729e+01
4.121000000000000085e+01 2.383864315678304635e+01
4.074000000000000199e+01 2.440620313062357738e+01
4.027000000000000313e+01 2.497376310446409420e+01
3.981000000000000227e+01 2.552924733418037206e+01
3.935999999999999943e+01 2.616418486979238978e+01
3.889999999999999858e+01 2.681323212841801151e+01
3.846000000000000085e+01 2.743405994101642520e+01
3.802000000000000313e+01 2.805488775361481402e+01
3.757999999999999829e+01 2.867571556621325257e+01
3.714999999999999858e+01 2.936509272030501450e+01
3.672999999999999687e+01 3.003843784755744295e+01
3.631000000000000227e+01 3.071178297480985364e+01
3.589000000000000057e+01 3.138512810206228565e+01
3.547999999999999687e+01 3.204244120247537353e+01
3.507999999999999829e+01 3.281578100838090961e+01
3.467000000000000171e+01 3.360845430943406598e+01
3.428000000000000114e+01 3.436246062019196046e+01
3.388000000000000256e+01 3.513580042609752496e+01
3.350000000000000000e+01 3.587047324170778495e+01
3.310999999999999943e+01 3.681279330367251390e+01
3.272999999999999687e+01 3.773095131276635072e+01
3.235999999999999943e+01 3.862494726898929542e+01
3.198999999999999844e+01 3.951894322521222591e+01
3.162000000000000099e+01 4.041293918143514929e+01
3.126000000000000156e+01 4.147826764830752211e+01
3.089999999999999858e+01 4.254359611517994466e+01
3.055000000000000071e+01 4.357933212463921535e+01
3.019999999999999929e+01 4.461506813409849315e+01
2.985000000000000142e+01 4.565080414355773542e+01
2.951000000000000156e+01 4.683636484273356615e+01
2.917000000000000171e+01 4.802192554190939688e+01
2.883999999999999986e+01 4.917261680875650853e+01
2.851000000000000156e+01 5.032330807560364860e+01
2.817999999999999972e+01 5.147399934245078157e+01
2.785999999999999943e+01 5.284211052657099827e+01
2.753999999999999915e+01 5.421022171069122209e+01
2.723000000000000043e+01 5.553557942030766270e+01
2.692000000000000171e+01 5.686093712992413174e+01
2.660999999999999943e+01 5.818629483954063630e+01
2.630000000000000071e+01 5.980480011483626157e+01
2.600000000000000000e+01 6.137109554254173105e+01
2.569999999999999929e+01 6.293739097024725027e+01
2.541000000000000014e+01 6.445147655036250001e+01
2.512000000000000099e+01 6.596556213047779238e+01
2.482999999999999829e+01 6.774114472588975389e+01
2.455000000000000071e+01 6.945550033525299227e+01
2.426999999999999957e+01 7.116985594461630171e+01
2.398999999999999844e+01 7.288421155397955431e+01
2.371000000000000085e+01 7.459856716334282112e+01
2.344000000000000128e+01 7.666514658364147294e+01
2.317000000000000171e+01 7.873172600394021003e+01
2.291000000000000014e+01 8.072176544570932322e+01
2.264999999999999858e+01 8.271180488747845061e+01
2.239000000000000057e+01 8.470184432924760642e+01
2.212999999999999901e+01 8.711470628318856768e+01
2.187999999999999901e+01 8.943476585428570047e+01
2.162999999999999901e+01 9.175482542538279063e+01
2.137999999999999901e+01 9.407488499647989499e+01
2.112999999999999901e+01 9.639494456757699936e+01
2.089000000000000057e+01 9.922767751746766862e+01
2.064999999999999858e+01 1.020604104673583237e+02
2.042000000000000171e+01 1.047751128776702672e+02
2.017999999999999972e+01 1.076078458275608938e+02
1.994999999999999929e+01 1.103225482378728515e+02
1.971999999999999886e+01 1.128823065548981930e+02
1.950000000000000000e+01 1.153307710320528940e+02
1.928000000000000114e+01 1.177792355092075098e+02
1.905000000000000071e+01 1.203389938262328656e+02
1.883999999999999986e+01 1.226761644635168267e+02
1.862000000000000099e+01 1.227752028753486542e+02
1.841000000000000014e+01 1.228697395411879540e+02
1.819999999999999929e+01 1.229642762070274529e+02
1.798999999999999844e+01 1.230588128728667527e+02
1.778000000000000114e+01 1.231533495387061237e+02
1.757999999999999829e+01 1.209186266999404182e+02
1.737999999999999901e+01 1.186839038611747696e+02
1.717999999999999972e+01 1.164491810224090784e+02
1.698000000000000043e+01 1.142144581836434298e+02
1.678999999999999915e+01 1.120914714868160189e+02
1.660000000000000142e+01 1.088173173685994470e+02
1.641000000000000014e+01 1.055431632503829320e+02
1.621999999999999886e+01 1.022690091321663317e+02
1.603000000000000114e+01 9.899485501394983089e+01
1.584999999999999964e+01 9.589302479669200352e+01
1.566999999999999993e+01 9.295529834225223453e+01
1.549000000000000021e+01 9.001757188781252239e+01
1.531000000000000050e+01 8.707984543337283867e+01
1.514000000000000057e+01 8.430532600417971878e+01
1.496000000000000085e+01 8.136759954974003506e+01
1.478999999999999915e+01 7.973870433382222700e+01
1.461999999999999922e+01 7.810980911790447578e+01
1.444999999999999929e+01 7.648091390198669615e+01
1.428999999999999915e+01 7.494783605171117813e+01
1.413000000000000078e+01 7.341475820143563169e+01
1.396000000000000085e+01 7.652597406429111970e+01
1.380000000000000071e+01 7.945417722933160576e+01
1.365000000000000036e+01 8.219936769655707565e+01
1.349000000000000021e+01 8.512757086159757591e+01
1.333999999999999986e+01 8.787276132882297475e+01
1.317999999999999972e+01 9.391233789064014559e+01
1.302999999999999936e+01 9.957444091734373615e+01
1.288000000000000078e+01 1.052365439440472130e+02
1.274000000000000021e+01 1.105211734356373228e+02
1.258999999999999986e+01 1.161832764623409133e+02
1.244999999999999929e+01 1.238444325138504354e+02
1.230000000000000071e+01 1.320528139976105990e+02
1.216000000000000014e+01 1.397139700491201495e+02
1.201999999999999957e+01 1.473751261006297852e+02
1.189000000000000057e+01 1.544890567198886515e+02
1.175000000000000000e+01 1.641738088580220278e+02
1.160999999999999943e+01 1.738585609961554610e+02
1.148000000000000043e+01 1.828515451244221879e+02
1.134999999999999964e+01 1.918445292526889432e+02
1.122000000000000064e+01 2.008375133809556132e+02
1.108999999999999986e+01 2.140953546345465952e+02
1.096000000000000085e+01 2.273531958881371509e+02
1.083999999999999986e+01 2.395912031991442177e+02
1.072000000000000064e+01 2.518292105101510856e+02
1.058999999999999986e+01 2.650870517637419539e+02
1.047000000000000064e+01 2.764909497389435842e+02
1.034999999999999964e+01 2.878948477141454418e+02
